0.01,1.9478
0.02,1.6569
0.03,1.3656
0.04,1.0762
0.05,0.78313
0.06,0.61652
0.07,0.54189
0.08,0.4656
0.09,0.39707
0.1,0.46641
0.11,0.54157
0.12,0.61881
0.13,0.63804
0.14,0.63964
0.15,0.63821
0.16,0.6402
0.17,0.63739
0.18,0.68687
0.19,0.76051
0.2,0.82938
0.21,0.88913
0.22,0.93778
0.23,0.97043
0.24,0.9869
0.25,0.98797
0.26,0.97083
0.27,0.93642
0.28,0.89126
0.29,0.82874
0.3,0.76108
0.31,0.68567
0.32,0.63908
0.33,0.63944
0.34,0.63985
0.35,0.64112
0.36,0.63945
0.37,0.6381
0.38,0.64018
0.39,0.63937
0.4,0.63913
0.41,0.64257
0.42,0.66235
0.43,0.67308
0.44,0.6701
0.45,0.65603
0.46,0.63963
0.47,0.63935
0.48,0.64018
0.49,0.63856
0.5,0.63965
0.51,0.64009
0.52,0.64019
0.53,0.6404
0.54,0.63961
0.55,0.64002
0.56,0.64015
0.57,0.64127
0.58,0.63978
0.59,0.63897
0.6,0.64084
0.61,0.63859
0.62,0.64006
0.63,0.63855
0.64,0.64107
0.65,0.63877
0.66,0.64082
0.67,0.63894
0.68,0.63983
0.69,0.64044
0.7,0.64012
0.71,0.63925
0.72,0.63956
0.73,0.63959
0.74,0.64016
0.75,0.63924
0.76,0.63762
0.77,0.63956
0.78,0.64021
0.79,0.63851
0.8,0.68114
0.81,0.75765
0.82,0.81549
0.83,0.85309
0.84,0.87158
0.85,0.86201
0.86,0.8254
0.87,0.76495
0.88,0.68206
0.89,0.63916
0.9,0.63947
0.91,0.64056
0.92,0.63985
0.93,0.63917
0.94,0.6385
0.95,0.78374
0.96,1.0767
0.97,1.3662
0.98,1.6575
0.99,1.9457
1,2.21
1.01,1.9472
1.02,1.6577
1.03,1.3664
1.04,1.0748
1.05,0.7826
1.06,0.61736
1.07,0.54106
1.08,0.46609
1.09,0.39803
1.1,0.46696
1.11,0.54289
1.12,0.61826
1.13,0.64061
1.14,0.63911
1.15,0.63881
1.16,0.63906
1.17,0.63648
1.18,0.68554
1.19,0.76028
1.2,0.82851
1.21,0.89147
1.22,0.93726
1.23,0.97084
1.24,0.98781
1.25,0.98917
1.26,0.97036
1.27,0.93746
1.28,0.89068
1.29,0.83012
1.3,0.76206
1.31,0.68592
1.32,0.63717
1.33,0.63886
1.34,0.64076
1.35,0.64058
1.36,0.63826
1.37,0.63963
1.38,0.63806
1.39,0.63889
1.4,0.64057
1.41,0.64169
1.42,0.663
1.43,0.67307
1.44,0.67128
1.45,0.65365
1.46,0.63982
1.47,0.63994
1.48,0.64034
1.49,0.63923
1.5,0.63894
1.51,0.64028
1.52,0.64123
1.53,0.6403
1.54,0.63969
1.55,0.63999
1.56,0.63911
1.57,0.63973
1.58,0.63889
1.59,0.63941
1.6,0.64131
1.61,0.64069
1.62,0.64008
1.63,0.63888
1.64,0.64159
1.65,0.63969
1.66,0.64003
1.67,0.64033
1.68,0.63899
1.69,0.64061
1.7,0.63915
1.71,0.64049
1.72,0.64075
1.73,0.63954
1.74,0.64016
1.75,0.63769
1.76,0.63853
1.77,0.6381
1.78,0.6379
1.79,0.64
1.8,0.68359
1.81,0.75726
1.82,0.81542
1.83,0.85193
1.84,0.86913
1.85,0.86168
1.86,0.82768
1.87,0.7645
1.88,0.68223
1.89,0.63991
1.9,0.63857
1.91,0.6387
1.92,0.63914
1.93,0.6401
1.94,0.63647
1.95,0.7839
1.96,1.0754
1.97,1.3662
1.98,1.6579
1.99,1.9471
2,2.2118
2.01,1.9474
2.02,1.6569
2.03,1.3679
2.04,1.0747
2.05,0.78288
2.06,0.61441
2.07,0.54123
2.08,0.46546
2.09,0.39816
2.1,0.46567
2.11,0.54116
2.12,0.61889
2.13,0.63769
2.14,0.63943
2.15,0.63909
2.16,0.64026
2.17,0.63825
2.18,0.68528
2.19,0.76079
2.2,0.83136
2.21,0.89029
2.22,0.93874
2.23,0.96955
2.24,0.98753
2.25,0.98724
2.26,0.97072
2.27,0.93812
2.28,0.89006
2.29,0.83065
2.3,0.76188
2.31,0.68568
2.32,0.63902
2.33,0.63947
2.34,0.63953
2.35,0.6403
2.36,0.63967
2.37,0.63988
2.38,0.64078
2.39,0.64024
2.4,0.63972
2.41,0.64162
2.42,0.66303
2.43,0.67371
2.44,0.67196
2.45,0.65583
2.46,0.63858
2.47,0.63843
2.48,0.63902
2.49,0.63975
2.5,0.6405
2.51,0.63939
2.52,0.64052
2.53,0.63887
2.54,0.6416
2.55,0.64042
2.56,0.64148
2.57,0.64044
2.58,0.64141
2.59,0.63961
2.6,0.64018
2.61,0.63917
2.62,0.63881
2.63,0.6395
2.64,0.63967
2.65,0.64139
2.66,0.63957
2.67,0.63874
2.68,0.63961
2.69,0.64056
2.7,0.63987
2.71,0.64129
2.72,0.64093
2.73,0.63919
2.74,0.63994
2.75,0.63873
2.76,0.64014
2.77,0.63845
2.78,0.64085
2.79,0.64108
2.8,0.68277
2.81,0.7573
2.82,0.8167
2.83,0.85181
2.84,0.86879
2.85,0.8603
2.86,0.82659
2.87,0.76555
2.88,0.68294
2.89,0.63916
2.9,0.63834
2.91,0.63987
2.92,0.64076
2.93,0.64023
2.94,0.63874
2.95,0.78373
2.96,1.0756
2.97,1.3654
2.98,1.6574
2.99,1.9484
3,2.2107
3.01,1.9486
3.02,1.6589
3.03,1.367
3.04,1.076
3.05,0.78352
3.06,0.61619
3.07,0.54152
3.08,0.46705
3.09,0.39761
3.1,0.4667
3.11,0.54145
3.12,0.61735
3.13,0.6383
3.14,0.63948
3.15,0.63822
3.16,0.6414
3.17,0.63884
3.18,0.6874
3.19,0.76135
3.2,0.83117
3.21,0.89039
3.22,0.93817
3.23,0.97179
3.24,0.9881
3.25,0.98735
3.26,0.97007
3.27,0.93793
3.28,0.88886
3.29,0.8306
3.3,0.76107
3.31,0.68609
3.32,0.63868
3.33,0.6391
3.34,0.63934
3.35,0.63896
3.36,0.63922
3.37,0.64
3.38,0.64044
3.39,0.64075
3.4,0.6408
3.41,0.64181
3.42,0.66335
3.43,0.67385
3.44,0.6706
3.45,0.65534
3.46,0.63839
3.47,0.6394
3.48,0.63914
3.49,0.64107
3.5,0.63918
3.51,0.63942
3.52,0.64063
3.53,0.63842
3.54,0.63816
3.55,0.64006
3.56,0.64038
3.57,0.64117
3.58,0.6395
3.59,0.6403
3.6,0.63816
3.61,0.64101
3.62,0.63994
3.63,0.64044
3.64,0.63946
3.65,0.63977
3.66,0.63991
3.67,0.63921
3.68,0.64044
3.69,0.63888
3.7,0.64142
3.71,0.64055
3.72,0.63839
3.73,0.63956
3.74,0.63999
3.75,0.63971
3.76,0.63988
3.77,0.63931
3.78,0.63985
3.79,0.63947
3.8,0.68269
3.81,0.75761
3.82,0.81709
3.83,0.85259
3.84,0.86891
3.85,0.86118
3.86,0.82625
3.87,0.76564
3.88,0.68295
3.89,0.63923
3.9,0.6403
3.91,0.6377
3.92,0.63875
3.93,0.63833
3.94,0.63626
3.95,0.78348
3.96,1.0745
3.97,1.3664
3.98,1.6576
3.99,1.9469
4,2.2106
4.01,1.9472
4.02,1.6576
4.03,1.3669
4.04,1.0759
4.05,0.78367
4.06,0.61627
4.07,0.54291
4.08,0.46671
4.09,0.3987
4.1,0.46524
4.11,0.54206
4.12,0.61945
4.13,0.63783
4.14,0.63991
4.15,0.64096
4.16,0.63946
4.17,0.63919
4.18,0.68611
4.19,0.76228
4.2,0.83005
4.21,0.88968
4.22,0.93727
4.23,0.96936
4.24,0.98939
4.25,0.98704
4.26,0.97054
4.27,0.93795
4.28,0.88971
4.29,0.83011
4.3,0.75991
4.31,0.68497
4.32,0.63903
4.33,0.63913
4.34,0.64039
4.35,0.64022
4.36,0.64061
4.37,0.63974
4.38,0.63951
4.39,0.6395
4.4,0.63945
4.41,0.64187
4.42,0.66204
4.43,0.67463
4.44,0.67092
4.45,0.65717
4.46,0.63925
4.47,0.63946
4.48,0.63896
4.49,0.63976
4.5,0.6396
4.51,0.64044
4.52,0.63968
4.53,0.6399
4.54,0.64037
4.55,0.64014
4.56,0.63839
4.57,0.64009
4.58,0.63774
4.59,0.639
4.6,0.64017
4.61,0.64028
4.62,0.63846
4.63,0.638
4.64,0.6409
4.65,0.64031
4.66,0.64053
4.67,0.63884
4.68,0.63986
4.69,0.63983
4.7,0.64092
4.71,0.64077
4.72,0.63992
4.73,0.63861
4.74,0.63904
4.75,0.63932
4.76,0.63923
4.77,0.64015
4.78,0.63985
4.79,0.63913
4.8,0.68195
4.81,0.75805
4.82,0.81772
4.83,0.85185
4.84,0.8701
4.85,0.86099
4.86,0.82601
4.87,0.76616
4.88,0.68045
4.89,0.63904
4.9,0.64028
4.91,0.63955
4.92,0.63833
4.93,0.6396
4.94,0.63755
4.95,0.78289
4.96,1.0769
4.97,1.3657
4.98,1.6566
4.99,1.9474
5,2.2106
5.01,1.946
5.02,1.6574
5.03,1.3668
5.04,1.075
5.05,0.78426
5.06,0.61725
5.07,0.54132
5.08,0.46654
5.09,0.3973
5.1,0.46513
5.11,0.54208
5.12,0.61873
5.13,0.63869
5.14,0.64028
5.15,0.63867
5.16,0.6412
5.17,0.63851
5.18,0.6867
5.19,0.76061
5.2,0.83068
5.21,0.89053
5.22,0.93946
5.23,0.97005
5.24,0.98808
5.25,0.98798
5.26,0.97089
5.27,0.93695
5.28,0.8895
5.29,0.83052
5.3,0.761
5.31,0.68637
5.32,0.63906
5.33,0.63905
5.34,0.6403
5.35,0.63977
5.36,0.64017
5.37,0.63944
5.38,0.64067
5.39,0.63932
5.4,0.6392
5.41,0.64356
5.42,0.663
5.43,0.6748
5.44,0.67013
5.45,0.65513
5.46,0.63936
5.47,0.63916
5.48,0.63919
5.49,0.63986
5.5,0.63946
5.51,0.64027
5.52,0.63772
5.53,0.63979
5.54,0.64114
5.55,0.63891
5.56,0.63986
5.57,0.64039
5.58,0.63944
5.59,0.63901
5.6,0.64054
5.61,0.63863
5.62,0.6395
5.63,0.63935
5.64,0.64032
5.65,0.63964
5.66,0.63937
5.67,0.63986
5.68,0.64016
5.69,0.64097
5.7,0.63886
5.71,0.63946
5.72,0.64093
5.73,0.64006
5.74,0.64043
5.75,0.63951
5.76,0.63988
5.77,0.63958
5.78,0.6385
5.79,0.63822
5.8,0.68119
5.81,0.75709
5.82,0.81679
5.83,0.85233
5.84,0.86889
5.85,0.86081
5.86,0.82549
5.87,0.76277
5.88,0.681
5.89,0.63953
5.9,0.6394
5.91,0.64008
5.92,0.64107
5.93,0.63874
5.94,0.63793
5.95,0.78491
5.96,1.076
5.97,1.3663
5.98,1.657
5.99,1.9474
6,2.2098
6.01,1.9481
6.02,1.6564
6.03,1.3672
6.04,1.0762
6.05,0.78311
6.06,0.61799
6.07,0.54072
6.08,0.46639
6.09,0.39881
6.1,0.4659
6.11,0.54296
6.12,0.6176
6.13,0.63936
6.14,0.6392
6.15,0.63999
6.16,0.6399
6.17,0.6395
6.18,0.68712
6.19,0.75947
6.2,0.82931
6.21,0.88916
6.22,0.93718
6.23,0.97092
6.24,0.98753
6.25,0.98787
6.26,0.97259
6.27,0.93742
6.28,0.88936
6.29,0.82998
6.3,0.762
6.31,0.6863
6.32,0.64093
6.33,0.63978
6.34,0.63933
6.35,0.6395
6.36,0.63877
6.37,0.63868
6.38,0.63964
6.39,0.63811
6.4,0.64017
6.41,0.64076
6.42,0.66033
6.43,0.67384
6.44,0.67044
6.45,0.65427
6.46,0.63889
6.47,0.63931
6.48,0.63935
6.49,0.63966
6.5,0.63955
6.51,0.63953
6.52,0.63923
6.53,0.63941
6.54,0.64051
6.55,0.63938
6.56,0.64005
6.57,0.64015
6.58,0.64004
6.59,0.64035
6.6,0.63946
6.61,0.63953
6.62,0.63874
6.63,0.64039
6.64,0.63964
6.65,0.63962
6.66,0.64008
6.67,0.63996
6.68,0.63947
6.69,0.64199
6.7,0.63995
6.71,0.6391
6.72,0.64063
6.73,0.63786
6.74,0.63855
6.75,0.63895
6.76,0.64027
6.77,0.64016
6.78,0.63929
6.79,0.63927
6.8,0.68075
6.81,0.75893
6.82,0.81701
6.83,0.85212
6.84,0.86921
6.85,0.86183
6.86,0.82701
6.87,0.7649
6.88,0.68382
6.89,0.63867
6.9,0.64036
6.91,0.63882
6.92,0.64143
6.93,0.6379
6.94,0.63874
6.95,0.78422
6.96,1.0766
6.97,1.3661
6.98,1.6572
6.99,1.9474
7,2.2092
7.01,1.9472
7.02,1.6574
7.03,1.3664
7.04,1.0768
7.05,0.78232
7.06,0.61684
7.07,0.5417
7.08,0.46708
7.09,0.39578
7.1,0.46577
7.11,0.54271
7.12,0.6172
7.13,0.63876
7.14,0.64086
7.15,0.64089
7.16,0.6394
7.17,0.63861
7.18,0.6867
7.19,0.76114
7.2,0.82995
7.21,0.89013
7.22,0.93709
7.23,0.96983
7.24,0.98757
7.25,0.98635
7.26,0.97154
7.27,0.93856
7.28,0.89014
7.29,0.83023
7.3,0.76171
7.31,0.68725
7.32,0.63967
7.33,0.64006
7.34,0.6394
7.35,0.6399
7.36,0.64049
7.37,0.63992
7.38,0.63791
7.39,0.63937
7.4,0.64008
7.41,0.64176
7.42,0.66413
7.43,0.67405
7.44,0.6708
7.45,0.65456
7.46,0.64051
7.47,0.63835
7.48,0.64101
7.49,0.63891
7.5,0.64029
7.51,0.64062
7.52,0.64055
7.53,0.64023
7.54,0.63962
7.55,0.6407
7.56,0.63999
7.57,0.64084
7.58,0.63941
7.59,0.64061
7.6,0.64053
7.61,0.63858
7.62,0.6399
7.63,0.63988
7.64,0.64048
7.65,0.63963
7.66,0.64024
7.67,0.63927
7.68,0.64063
7.69,0.64057
7.7,0.6414
7.71,0.63996
7.72,0.63791
7.73,0.64069
7.74,0.63932
7.75,0.63917
7.76,0.64099
7.77,0.64107
7.78,0.64115
7.79,0.63857
7.8,0.68277
7.81,0.75668
7.82,0.81673
7.83,0.85303
7.84,0.86768
7.85,0.86226
7.86,0.826
7.87,0.76484
7.88,0.6835
7.89,0.63873
7.9,0.6394
7.91,0.64012
7.92,0.63816
7.93,0.63945
7.94,0.63817
7.95,0.78341
7.96,1.0774
7.97,1.3662
7.98,1.6566
7.99,1.9473
8,2.2098
8.01,1.9474
8.02,1.6576
8.03,1.3671
8.04,1.074
8.05,0.78366
8.06,0.61653
8.07,0.54073
8.08,0.46469
8.09,0.39699
8.1,0.46556
8.11,0.54125
8.12,0.61834
8.13,0.63784
8.14,0.63972
8.15,0.64044
8.16,0.63852
8.17,0.64017
8.18,0.68554
8.19,0.75952
8.2,0.83032
8.21,0.88986
8.22,0.93647
8.23,0.96874
8.24,0.98651
8.25,0.98772
8.26,0.97091
8.27,0.93855
8.28,0.8901
8.29,0.83037
8.3,0.76083
8.31,0.68685
8.32,0.63851
8.33,0.64008
8.34,0.6398
8.35,0.63971
8.36,0.63904
8.37,0.64046
8.38,0.64091
8.39,0.63849
8.4,0.63924
8.41,0.64142
8.42,0.66232
8.43,0.67567
8.44,0.67112
8.45,0.65518
8.46,0.63968
8.47,0.63966
8.48,0.64111
8.49,0.63922
8.5,0.63989
8.51,0.63865
8.52,0.64006
8.53,0.6392
8.54,0.64008
8.55,0.63992
8.56,0.6386
8.57,0.64107
8.58,0.64046
8.59,0.64084
8.6,0.63884
8.61,0.63906
8.62,0.63949
8.63,0.63963
8.64,0.63859
8.65,0.63932
8.66,0.63936
8.67,0.6408
8.68,0.63956
8.69,0.63914
8.7,0.63831
8.71,0.63861
8.72,0.63839
8.73,0.63919
8.74,0.64025
8.75,0.63861
8.76,0.64119
8.77,0.63935
8.78,0.63882
8.79,0.63918
8.8,0.68239
8.81,0.75636
8.82,0.81779
8.83,0.85308
8.84,0.86877
8.85,0.8618
8.86,0.82628
8.87,0.76556
8.88,0.682
8.89,0.63915
8.9,0.64083
8.91,0.63931
8.92,0.63974
8.93,0.63922
8.94,0.63782
8.95,0.78232
8.96,1.0762
8.97,1.367
8.98,1.6587
8.99,1.9464
9,2.2094
9.01,1.9471
9.02,1.6585
9.03,1.367
9.04,1.0743
9.05,0.7842
9.06,0.61563
9.07,0.54114
9.08,0.46632
9.09,0.39642
9.1,0.46644
9.11,0.54226
9.12,0.62025
9.13,0.6387
9.14,0.63923
9.15,0.64021
9.16,0.63954
9.17,0.63928
9.18,0.68631
9.19,0.76232
9.2,0.8313
9.21,0.89007
9.22,0.9376
9.23,0.9706
9.24,0.98813
9.25,0.98826
9.26,0.9714
9.27,0.93868
9.28,0.88992
9.29,0.83251
9.3,0.76138
9.31,0.68588
9.32,0.63726
9.33,0.63948
9.34,0.63758
9.35,0.6398
9.36,0.63865
9.37,0.63962
9.38,0.63994
9.39,0.64066
9.4,0.64066
9.41,0.64271
9.42,0.66382
9.43,0.67443
9.44,0.67124
9.45,0.65545
9.46,0.63876
9.47,0.63928
9.48,0.64047
9.49,0.63965
9.5,0.63894
9.51,0.63977
9.52,0.63927
9.53,0.64
9.54,0.63987
9.55,0.63936
9.56,0.63862
9.57,0.63857
9.58,0.64006
9.59,0.63956
9.6,0.64045
9.61,0.63829
9.62,0.63955
9.63,0.63859
9.64,0.63869
9.65,0.6387
9.66,0.63912
9.67,0.64043
9.68,0.63929
9.69,0.63932
9.7,0.64042
9.71,0.63955
9.72,0.63994
9.73,0.63883
9.74,0.64057
9.75,0.64038
9.76,0.63884
9.77,0.63908
9.78,0.64017
9.79,0.64003
9.8,0.6822
9.81,0.75789
9.82,0.81614
9.83,0.85318
9.84,0.86928
9.85,0.86223
9.86,0.82573
9.87,0.76432
9.88,0.68331
9.89,0.63965
9.9,0.63957
9.91,0.64033
9.92,0.64013
9.93,0.64044
9.94,0.63828
9.95,0.78269
9.96,1.0759
9.97,1.367
9.98,1.6573
9.99,1.9471
10,2.2109
10.01,1.948
10.02,1.6565
10.03,1.3674
10.04,1.0755
10.05,0.78346
10.06,0.61567
10.07,0.54073
10.08,0.4669
10.09,0.39785
10.1,0.46716
10.11,0.54237
10.12,0.61765
10.13,0.63946
10.14,0.64059
10.15,0.63916
10.16,0.64008
10.17,0.63886
10.18,0.68649
10.19,0.7628
10.2,0.82859
10.21,0.88918
10.22,0.93686
10.23,0.9707
10.24,0.98708
10.25,0.98728
10.26,0.97108
10.27,0.93659
10.28,0.88916
10.29,0.83013
10.3,0.76099
10.31,0.68789
10.32,0.639
10.33,0.63984
10.34,0.6397
10.35,0.63754
10.36,0.63881
10.37,0.63854
10.38,0.63878
10.39,0.64036
10.4,0.63994
10.41,0.64224
10.42,0.66153
10.43,0.67447
10.44,0.67136
10.45,0.65513
10.46,0.64021
10.47,0.63895
10.48,0.6394
10.49,0.63877
10.5,0.64021
10.51,0.64067
10.52,0.63931
10.53,0.63984
10.54,0.63996
10.55,0.63862
10.56,0.64083
10.57,0.63815
10.58,0.6403
10.59,0.63995
10.6,0.64083
10.61,0.63923
10.62,0.63954
10.63,0.63965
10.64,0.63956
10.65,0.63939
10.66,0.63851
10.67,0.63959
10.68,0.63949
10.69,0.6401
10.7,0.63961
10.71,0.6386
10.72,0.63904
10.73,0.63962
10.74,0.64007
10.75,0.63846
10.76,0.64026
10.77,0.63886
10.78,0.63949
10.79,0.63794
10.8,0.68069
10.81,0.7578
10.82,0.81749
10.83,0.85341
10.84,0.86746
10.85,0.86163
10.86,0.82649
10.87,0.76394
10.88,0.68347
10.89,0.6378
10.9,0.63899
10.91,0.63879
10.92,0.6391
10.93,0.63938
10.94,0.63772
10.95,0.78249
10.96,1.0764
10.97,1.3665
10.98,1.6582
10.99,1.9472
11,2.2097
11.01,1.9477
11.02,1.6566
11.03,1.3663
11.04,1.0752
11.05,0.78285
11.06,0.61674
11.07,0.54089
11.08,0.4673
11.09,0.39779
11.1,0.46641
11.11,0.54013
11.12,0.62028
11.13,0.63953
11.14,0.63924
11.15,0.63817
11.16,0.63855
11.17,0.63821
11.18,0.68571
11.19,0.76041
11.2,0.83071
11.21,0.88796
11.22,0.93699
11.23,0.97066
11.24,0.98643
11.25,0.98861
11.26,0.97065
11.27,0.93797
11.28,0.88934
11.29,0.82894
11.3,0.762
11.31,0.68707
11.32,0.63765
11.33,0.64036
11.34,0.63936
11.35,0.64091
11.36,0.64099
11.37,0.64006
11.38,0.6394
11.39,0.64029
11.4,0.64064
11.41,0.64191
11.42,0.66376
11.43,0.67266
11.44,0.67145
11.45,0.65454
11.46,0.63923
11.47,0.64007
11.48,0.64061
11.49,0.63903
11.5,0.64003
11.51,0.63938
11.52,0.63971
11.53,0.63845
11.54,0.6403
11.55,0.63927
11.56,0.64028
11.57,0.63916
11.58,0.63938
11.59,0.6396
11.6,0.64106
11.61,0.63905
11.62,0.63905
11.63,0.64017
11.64,0.63802
11.65,0.64004
11.66,0.63859
11.67,0.63974
11.68,0.64064
11.69,0.63932
11.7,0.64012
11.71,0.63933
11.72,0.63837
11.73,0.63857
11.74,0.63892
11.75,0.63826
11.76,0.63802
11.77,0.64
11.78,0.64056
11.79,0.63856
11.8,0.68294
11.81,0.75633
11.82,0.81779
11.83,0.85312
11.84,0.86955
11.85,0.86213
11.86,0.82651
11.87,0.76378
11.88,0.68149
11.89,0.63883
11.9,0.63914
11.91,0.63988
11.92,0.63946
11.93,0.63848
11.94,0.63749
11.95,0.78369
11.96,1.077
11.97,1.367
11.98,1.6574
11.99,1.9477
12,2.2083
12.01,1.947
12.02,1.6574
12.03,1.3665
12.04,1.0771
12.05,0.78175
12.06,0.61717
12.07,0.54167
12.08,0.46446
12.09,0.3983
12.1,0.46667
12.11,0.54083
12.12,0.61867
12.13,0.64045
12.14,0.63905
12.15,0.64012
12.16,0.64016
12.17,0.63731
12.18,0.68594
12.19,0.762
12.2,0.83174
12.21,0.88875
12.22,0.9375
12.23,0.97092
12.24,0.98712
12.25,0.98872
12.26,0.97084
12.27,0.93881
12.28,0.8895
12.29,0.83102
12.3,0.76103
12.31,0.68582
12.32,0.63882
12.33,0.63935
12.34,0.63981
12.35,0.63908
12.36,0.6395
12.37,0.64097
12.38,0.63856
12.39,0.64058
12.4,0.64009
12.41,0.64376
12.42,0.66422
12.43,0.67331
12.44,0.67256
12.45,0.65466
12.46,0.6387
12.47,0.63851
12.48,0.63909
12.49,0.63914
12.5,0.63968
12.51,0.63975
12.52,0.6398
12.53,0.63914
12.54,0.64002
12.55,0.63872
12.56,0.64118
12.57,0.63981
12.58,0.63932
12.59,0.63987
12.6,0.63956
12.61,0.63949
12.62,0.64097
12.63,0.64164
12.64,0.63993
12.65,0.6401
12.66,0.64021
12.67,0.6374
12.68,0.64018
12.69,0.64051
12.7,0.64008
12.71,0.64017
12.72,0.6398
12.73,0.64014
12.74,0.63933
12.75,0.63913
12.76,0.63912
12.77,0.63863
12.78,0.64052
12.79,0.63899
12.8,0.68274
12.81,0.75719
12.82,0.81753
12.83,0.85193
12.84,0.86862
12.85,0.86243
12.86,0.82538
12.87,0.76377
12.88,0.68471
12.89,0.63849
12.9,0.64032
12.91,0.6388
12.92,0.64017
12.93,0.63962
12.94,0.63723
12.95,0.7809
12.96,1.0773
12.97,1.367
12.98,1.6567
12.99,1.9465
13,2.21
13.01,1.9463
13.02,1.6557
13.03,1.3662
13.04,1.0753
13.05,0.78238
13.06,0.61642
13.07,0.54047
13.08,0.46435
13.09,0.39798
13.1,0.46557
13.11,0.54286
13.12,0.62008
13.13,0.63907
13.14,0.63926
13.15,0.64004
13.16,0.63997
13.17,0.63816
13.18,0.68467
13.19,0.76184
13.2,0.82869
13.21,0.89161
13.22,0.93755
13.23,0.97149
13.24,0.9876
13.25,0.98719
13.26,0.9709
13.27,0.93787
13.28,0.88901
13.29,0.83074
13.3,0.76086
13.31,0.68573
13.32,0.6392
13.33,0.63941
13.34,0.63693
13.35,0.63841
13.36,0.64102
13.37,0.64067
13.38,0.63972
13.39,0.6409
13.4,0.63903
13.41,0.64112
13.42,0.66187
13.43,0.67474
13.44,0.6709
13.45,0.65441
13.46,0.63842
13.47,0.63792
13.48,0.63855
13.49,0.63971
13.5,0.63914
13.51,0.63886
13.52,0.64026
13.53,0.64085
13.54,0.63904
13.55,0.63991
13.56,0.63957
13.57,0.63993
13.58,0.6406
13.59,0.64042
13.6,0.64054
13.61,0.64009
13.62,0.64069
13.63,0.63932
13.64,0.64144
13.65,0.6383
13.66,0.6404
13.67,0.64115
13.68,0.63908
13.69,0.63822
13.7,0.64094
13.71,0.63963
13.72,0.63867
13.73,0.63934
13.74,0.64078
13.75,0.63945
13.76,0.63978
13.77,0.63967
13.78,0.64015
13.79,0.63934
13.8,0.68306
13.81,0.75976
13.82,0.8169
13.83,0.85277
13.84,0.87105
13.85,0.86193
13.86,0.825
13.87,0.76316
13.88,0.6833
13.89,0.63843
13.9,0.63872
13.91,0.63868
13.92,0.63978
13.93,0.63955
13.94,0.63782
13.95,0.78388
13.96,1.0748
13.97,1.3667
13.98,1.6573
13.99,1.9474
14,2.2086
14.01,1.9479
14.02,1.6603
14.03,1.3653
14.04,1.0754
14.05,0.78113
14.06,0.61721
14.07,0.54147
14.08,0.46735
14.09,0.39836
14.1,0.46525
14.11,0.54163
14.12,0.61812
14.13,0.63847
14.14,0.6409
14.15,0.63861
14.16,0.63901
14.17,0.63931
14.18,0.68679
14.19,0.76111
14.2,0.8314
14.21,0.89076
14.22,0.93704
14.23,0.97017
14.24,0.98772
14.25,0.98845
14.26,0.9702
14.27,0.9371
14.28,0.89039
14.29,0.82996
14.3,0.7613
14.31,0.68566
14.32,0.63816
14.33,0.6393
14.34,0.63881
14.35,0.64073
14.36,0.64073
14.37,0.63966
14.38,0.63903
14.39,0.64024
14.4,0.63971
14.41,0.64139
14.42,0.66241
14.43,0.67478
14.44,0.67056
14.45,0.65558
14.46,0.64022
14.47,0.63919
14.48,0.63839
14.49,0.63992
14.5,0.64082
14.51,0.64044
14.52,0.63791
14.53,0.64054
14.54,0.63857
14.55,0.64005
14.56,0.6389
14.57,0.63852
14.58,0.63961
14.59,0.63876
14.6,0.6376
14.61,0.63812
14.62,0.63886
14.63,0.64019
14.64,0.64096
14.65,0.64111
14.66,0.63996
14.67,0.63841
14.68,0.63879
14.69,0.6406
14.7,0.6394
14.71,0.64061
14.72,0.6385
14.73,0.63917
14.74,0.64045
14.75,0.63949
14.76,0.64041
14.77,0.63926
14.78,0.64013
14.79,0.63897
14.8,0.68163
14.81,0.75875
14.82,0.81662
14.83,0.85029
14.84,0.86747
14.85,0.86255
14.86,0.82612
14.87,0.76444
14.88,0.68101
14.89,0.63884
14.9,0.63879
14.91,0.63927
14.92,0.63924
14.93,0.63884
14.94,0.63748
14.95,0.78283
14.96,1.0749
14.97,1.3668
14.98,1.6566
14.99,1.9463
15,2.2097
15.01,1.9453
15.02,1.6581
15.03,1.3669
15.04,1.0742
15.05,0.78136
15.06,0.61757
15.07,0.54205
15.08,0.46468
15.09,0.39593
15.1,0.46686
15.11,0.54266
15.12,0.61782
15.13,0.63959
15.14,0.64027
15.15,0.63964
15.16,0.63681
15.17,0.63869
15.18,0.68617
15.19,0.76116
15.2,0.82842
15.21,0.88949
15.22,0.938
15.23,0.97128
15.24,0.98795
15.25,0.98902
15.26,0.96932
15.27,0.93742
15.28,0.89098
15.29,0.8275
15.3,0.76135
15.31,0.6866
15.32,0.63864
15.33,0.64017
15.34,0.63892
15.35,0.63887
15.36,0.64154
15.37,0.63879
15.38,0.63872
15.39,0.6405
15.4,0.63979
15.41,0.64202
15.42,0.6633
15.43,0.67445
15.44,0.67167
15.45,0.65537
15.46,0.63922
15.47,0.63832
15.48,0.63915
15.49,0.63907
15.5,0.64037
15.51,0.63985
15.52,0.63848
15.53,0.6412
15.54,0.64013
15.55,0.64081
15.56,0.63924
15.57,0.63907
15.58,0.64041
15.59,0.63941
15.6,0.63974
15.61,0.63931
15.62,0.63851
15.63,0.64042
15.64,0.64045
15.65,0.63937
15.66,0.63923
15.67,0.64026
15.68,0.6396
15.69,0.63919
15.7,0.63805
15.71,0.63855
15.72,0.63864
15.73,0.63979
15.74,0.63744
15.75,0.63855
15.76,0.63962
15.77,0.6409
15.78,0.64004
15.79,0.6395
15.8,0.68257
15.81,0.75761
15.82,0.81708
15.83,0.85133
15.84,0.86823
15.85,0.86106
15.86,0.82628
15.87,0.76453
15.88,0.68308
15.89,0.6391
15.9,0.63919
15.91,0.63969
15.92,0.63952
15.93,0.63857
15.94,0.63788
15.95,0.78289
15.96,1.0745
15.97,1.3677
15.98,1.6561
15.99,1.9477
16,2.21
16.01,1.948
16.02,1.6578
16.03,1.3667
16.04,1.0753
16.05,0.78309
16.06,0.61615
16.07,0.54323
16.08,0.46532
16.09,0.39841
16.1,0.46594
16.11,0.54186
16.12,0.61908
16.13,0.63862
16.14,0.63999
16.15,0.63923
16.16,0.63804
16.17,0.63889
16.18,0.6854
16.19,0.76138
16.2,0.83066
16.21,0.89094
16.22,0.93527
16.23,0.97112
16.24,0.98756
16.25,0.98906
16.26,0.96995
16.27,0.93853
16.28,0.88902
16.29,0.82984
16.3,0.76026
16.31,0.68609
16.32,0.63926
16.33,0.63792
16.34,0.63969
16.35,0.64028
16.36,0.64075
16.37,0.64104
16.38,0.63932
16.39,0.64052
16.4,0.63942
16.41,0.64212
16.42,0.66222
16.43,0.67387
16.44,0.67109
16.45,0.65487
16.46,0.63983
16.47,0.63983
16.48,0.63946
16.49,0.6388
16.5,0.6395
16.51,0.63851
16.52,0.63824
16.53,0.63904
16.54,0.63873
16.55,0.63903
16.56,0.63961
16.57,0.63827
16.58,0.6408
16.59,0.63919
16.6,0.63951
16.61,0.64042
16.62,0.64008
16.63,0.6387
16.64,0.63972
16.65,0.64066
16.66,0.63932
16.67,0.63932
16.68,0.64024
16.69,0.63933
16.7,0.63778
16.71,0.64028
16.72,0.64168
16.73,0.63977
16.74,0.63988
16.75,0.64023
16.76,0.64138
16.77,0.64035
16.78,0.63872
16.79,0.63843
16.8,0.68175
16.81,0.75685
16.82,0.81738
16.83,0.85129
16.84,0.86958
16.85,0.86265
16.86,0.82558
16.87,0.76513
16.88,0.68288
16.89,0.63916
16.9,0.63994
16.91,0.63959
16.92,0.64055
16.93,0.64086
16.94,0.63932
16.95,0.78334
16.96,1.0764
16.97,1.3655
16.98,1.6565
16.99,1.9474
17,2.2116
17.01,1.9481
17.02,1.6578
17.03,1.3651
17.04,1.0774
17.05,0.78292
17.06,0.61693
17.07,0.54216
17.08,0.4666
17.09,0.39735
17.1,0.46537
17.11,0.54274
17.12,0.61847
17.13,0.63888
17.14,0.64048
17.15,0.63869
17.16,0.64024
17.17,0.63785
17.18,0.68483
17.19,0.76109
17.2,0.83133
17.21,0.8914
17.22,0.93958
17.23,0.97092
17.24,0.98662
17.25,0.98608
17.26,0.97212
17.27,0.93653
17.28,0.88916
17.29,0.83009
17.3,0.7607
17.31,0.6856
17.32,0.63806
17.33,0.64007
17.34,0.63987
17.35,0.63953
17.36,0.64139
17.37,0.63902
17.38,0.64038
17.39,0.6397
17.4,0.63976
17.41,0.64142
17.42,0.66293
17.43,0.67384
17.44,0.67024
17.45,0.65422
17.46,0.63803
17.47,0.63827
17.48,0.63904
17.49,0.63994
17.5,0.63943
17.51,0.63896
17.52,0.64069
17.53,0.63846
17.54,0.63974
17.55,0.64032
17.56,0.6399
17.57,0.64059
17.58,0.63964
17.59,0.64034
17.6,0.63973
17.61,0.6392
17.62,0.64086
17.63,0.63965
17.64,0.63971
17.65,0.64093
17.66,0.63927
17.67,0.6388
17.68,0.63945
17.69,0.63912
17.7,0.64007
17.71,0.64008
17.72,0.63895
17.73,0.63896
17.74,0.64008
17.75,0.63968
17.76,0.63877
17.77,0.63971
17.78,0.63947
17.79,0.63836
17.8,0.68274
17.81,0.75675
17.82,0.81652
17.83,0.85355
17.84,0.86861
17.85,0.8611
17.86,0.82716
17.87,0.76468
17.88,0.6815
17.89,0.64016
17.9,0.63909
17.91,0.63954
17.92,0.63991
17.93,0.6394
17.94,0.63754
17.95,0.78458
17.96,1.0753
17.97,1.3651
17.98,1.6569
17.99,1.948
18,2.2114
18.01,1.9477
18.02,1.6569
18.03,1.3669
18.04,1.0752
18.05,0.78286
18.06,0.61535
18.07,0.5417
18.08,0.46626
18.09,0.39885
18.1,0.46555
18.11,0.54193
18.12,0.61799
18.13,0.6406
18.14,0.6384
18.15,0.63792
18.16,0.63934
18.17,0.63842
18.18,0.68574
18.19,0.76087
18.2,0.8304
18.21,0.89003
18.22,0.93734
18.23,0.97077
18.24,0.98842
18.25,0.98732
18.26,0.97132
18.27,0.93857
18.28,0.8894
18.29,0.8311
18.3,0.76136
18.31,0.68525
18.32,0.641
18.33,0.64005
18.34,0.63992
18.35,0.63858
18.36,0.64012
18.37,0.63912
18.38,0.63902
18.39,0.63923
18.4,0.63893
18.41,0.64156
18.42,0.66261
18.43,0.67494
18.44,0.67059
18.45,0.65537
18.46,0.63934
18.47,0.63814
18.48,0.64023
18.49,0.63945
18.5,0.63896
18.51,0.63928
18.52,0.64039
18.53,0.64062
18.54,0.64069
18.55,0.64189
18.56,0.64057
18.57,0.63957
18.58,0.63931
18.59,0.63909
18.6,0.63969
18.61,0.64074
18.62,0.63928
18.63,0.63979
18.64,0.63917
18.65,0.63845
18.66,0.63853
18.67,0.63993
18.68,0.64068
18.69,0.64094
18.7,0.64006
18.71,0.63969
18.72,0.6399
18.73,0.6397
18.74,0.64003
18.75,0.6388
18.76,0.63903
18.77,0.63981
18.78,0.63932
18.79,0.63762
18.8,0.68234
18.81,0.7571
18.82,0.81666
18.83,0.8518
18.84,0.86878
18.85,0.86257
18.86,0.82552
18.87,0.76406
18.88,0.68189
18.89,0.63904
18.9,0.63929
18.91,0.64017
18.92,0.63925
18.93,0.64
18.94,0.63934
18.95,0.78244
18.96,1.0759
18.97,1.3676
18.98,1.6552
18.99,1.9464
19,2.2106
19.01,1.9483
19.02,1.6579
19.03,1.3662
19.04,1.0748
19.05,0.78105
19.06,0.61576
19.07,0.54134
19.08,0.46838
19.09,0.3977
19.1,0.4658
19.11,0.5435
19.12,0.61892
19.13,0.63942
19.14,0.63861
19.15,0.63942
19.16,0.63871
19.17,0.63767
19.18,0.68721
19.19,0.76118
19.2,0.82931
19.21,0.88928
19.22,0.93864
19.23,0.9692
19.24,0.98803
19.25,0.98628
19.26,0.9706
19.27,0.93744
19.28,0.88903
19.29,0.82904
19.3,0.76129
19.31,0.68583
19.32,0.639
19.33,0.63913
19.34,0.6394
19.35,0.64016
19.36,0.63971
19.37,0.63912
19.38,0.6391
19.39,0.64074
19.4,0.63927
19.41,0.64049
19.42,0.66305
19.43,0.67415
19.44,0.67038
19.45,0.65365
19.46,0.64104
19.47,0.64065
19.48,0.64075
19.49,0.63873
19.5,0.63975
19.51,0.63955
19.52,0.63976
19.53,0.64008
19.54,0.63954
19.55,0.63938
19.56,0.6399
19.57,0.63952
19.58,0.63976
19.59,0.6395
19.6,0.63965
19.61,0.6417
19.62,0.639
19.63,0.64036
19.64,0.63903
19.65,0.64013
19.66,0.63785
19.67,0.6412
19.68,0.63964
19.69,0.63846
19.7,0.63968
19.71,0.63947
19.72,0.64037
19.73,0.63987
19.74,0.63939
19.75,0.64033
19.76,0.6387
19.77,0.63927
19.78,0.63943
19.79,0.63972
19.8,0.68229
19.81,0.75775
19.82,0.81658
19.83,0.85356
19.84,0.86973
19.85,0.86057
19.86,0.82508
19.87,0.76382
19.88,0.68412
19.89,0.63881
19.9,0.63867
19.91,0.64041
19.92,0.63888
19.93,0.63941
19.94,0.63773
19.95,0.78411
19.96,1.075
19.97,1.3667
19.98,1.6579
19.99,1.9485
20,2.2095
20.01,1.9476
20.02,1.6562
20.03,1.3679
20.04,1.0767
20.05,0.78223
20.06,0.61754
20.07,0.54166
20.08,0.46613
20.09,0.39823
20.1,0.4663
20.11,0.54178
20.12,0.61763
20.13,0.63832
20.14,0.63934
20.15,0.64075
20.16,0.63923
20.17,0.64034
20.18,0.6861
20.19,0.76096
20.2,0.83097
20.21,0.89023
20.22,0.93688
20.23,0.96999
20.24,0.98763
20.25,0.98854
20.26,0.97242
20.27,0.93674
20.28,0.88962
20.29,0.82973
20.3,0.76166
20.31,0.68635
20.32,0.63843
20.33,0.63979
20.34,0.63813
20.35,0.63825
20.36,0.63814
20.37,0.63907
20.38,0.64039
20.39,0.63922
20.4,0.63897
20.41,0.64332
20.42,0.66276
20.43,0.67344
20.44,0.67093
20.45,0.6555
20.46,0.63853
20.47,0.63887
20.48,0.63844
20.49,0.64032
20.5,0.63882
20.51,0.63856
20.52,0.63961
20.53,0.6385
20.54,0.64
20.55,0.63912
20.56,0.64199
20.57,0.6393
20.58,0.63924
20.59,0.63961
20.6,0.64032
20.61,0.63831
20.62,0.6398
20.63,0.64074
20.64,0.63872
20.65,0.6395
20.66,0.63986
20.67,0.63948
20.68,0.63941
20.69,0.63994
20.7,0.63961
20.71,0.64038
20.72,0.63977
20.73,0.64038
20.74,0.64084
20.75,0.63925
20.76,0.64086
20.77,0.63878
20.78,0.63828
20.79,0.63895
20.8,0.68141
20.81,0.75857
20.82,0.81667
20.83,0.85209
20.84,0.86973
20.85,0.86267
20.86,0.82624
20.87,0.76515
20.88,0.68297
20.89,0.63911
20.9,0.63936
20.91,0.63871
20.92,0.63818
20.93,0.63925
20.94,0.63835
20.95,0.78223
20.96,1.0765
20.97,1.3655
20.98,1.6574
20.99,1.9462
21,2.2107
21.01,1.9467
21.02,1.6569
21.03,1.3666
21.04,1.0741
21.05,0.78284
21.06,0.61555
21.07,0.54209
21.08,0.4671
21.09,0.39718
21.1,0.46705
21.11,0.54246
21.12,0.6193
21.13,0.63904
21.14,0.63991
21.15,0.63956
21.16,0.63968
21.17,0.63996
21.18,0.68644
21.19,0.76145
21.2,0.83253
21.21,0.8896
21.22,0.93858
21.23,0.97093
21.24,0.98622
21.25,0.98659
21.26,0.97193
21.27,0.93571
21.28,0.88874
21.29,0.82937
21.3,0.7608
21.31,0.68563
21.32,0.63808
21.33,0.63957
21.34,0.64124
21.35,0.64103
21.36,0.63935
21.37,0.63914
21.38,0.64082
21.39,0.64095
21.4,0.64085
21.41,0.64221
21.42,0.66373
21.43,0.67449
21.44,0.67074
21.45,0.65532
21.46,0.63854
21.47,0.63829
21.48,0.63956
21.49,0.63954
21.5,0.63959
21.51,0.63957
21.52,0.64008
21.53,0.63912
21.54,0.63964
21.55,0.64056
21.56,0.63959
21.57,0.63979
21.58,0.63808
21.59,0.63992
21.6,0.63919
21.61,0.63963
21.62,0.64034
21.63,0.63759
21.64,0.64111
21.65,0.64038
21.66,0.63944
21.67,0.63893
21.68,0.63905
21.69,0.64077
21.7,0.63993
21.71,0.63954
21.72,0.63925
21.73,0.63761
21.74,0.6411
21.75,0.63969
21.76,0.64017
21.77,0.64052
21.78,0.64036
21.79,0.6385
21.8,0.68208
21.81,0.75727
21.82,0.81731
21.83,0.85227
21.84,0.86807
21.85,0.86201
21.86,0.82525
21.87,0.76437
21.88,0.68128
21.89,0.63994
21.9,0.63977
21.91,0.63946
21.92,0.63851
21.93,0.63879
21.94,0.63847
21.95,0.78244
21.96,1.0758
21.97,1.3667
21.98,1.6567
21.99,1.9474
22,2.2085
22.01,1.9476
22.02,1.6595
22.03,1.3667
22.04,1.0755
22.05,0.78324
22.06,0.61783
22.07,0.54102
22.08,0.4668
22.09,0.39763
22.1,0.46543
22.11,0.54219
22.12,0.61899
22.13,0.63934
22.14,0.63844
22.15,0.64001
22.16,0.63866
22.17,0.63983
22.18,0.6863
22.19,0.76032
22.2,0.829
22.21,0.89047
22.22,0.93664
22.23,0.9709
22.24,0.98549
22.25,0.98695
22.26,0.97186
22.27,0.93697
22.28,0.89061
22.29,0.8318
22.3,0.76113
22.31,0.68771
22.32,0.63732
22.33,0.63883
22.34,0.64096
22.35,0.64004
22.36,0.63951
22.37,0.639
22.38,0.64082
22.39,0.6398
22.4,0.64083
22.41,0.64172
22.42,0.66221
22.43,0.67341
22.44,0.67178
22.45,0.65478
22.46,0.6395
22.47,0.63973
22.48,0.64006
22.49,0.63975
22.5,0.64025
22.51,0.63948
22.52,0.63873
22.53,0.64036
22.54,0.63844
22.55,0.63859
22.56,0.63998
22.57,0.63983
22.58,0.64075
22.59,0.6393
22.6,0.64089
22.61,0.63882
22.62,0.63971
22.63,0.63943
22.64,0.63934
22.65,0.63984
22.66,0.64044
22.67,0.63995
22.68,0.63958
22.69,0.64097
22.7,0.64054
22.71,0.6382
22.72,0.63934
22.73,0.63948
22.74,0.64026
22.75,0.64075
22.76,0.63993
22.77,0.63944
22.78,0.64034
22.79,0.6396
22.8,0.68318
22.81,0.75874
22.82,0.81712
22.83,0.85233
22.84,0.86938
22.85,0.86056
22.86,0.82564
22.87,0.76486
22.88,0.68292
22.89,0.63921
22.9,0.6397
22.91,0.63969
22.92,0.63878
22.93,0.63826
22.94,0.63825
22.95,0.78365
22.96,1.0765
22.97,1.3663
22.98,1.6573
22.99,1.9472
23,2.2119
23.01,1.9482
23.02,1.6587
23.03,1.3668
23.04,1.0762
23.05,0.78237
23.06,0.61647
23.07,0.54011
23.08,0.4666
23.09,0.39748
23.1,0.46673
23.11,0.5415
23.12,0.61673
23.13,0.63932
23.14,0.63906
23.15,0.6391
23.16,0.63951
23.17,0.64018
23.18,0.68643
23.19,0.76212
23.2,0.83188
23.21,0.88898
23.22,0.93799
23.23,0.97142
23.24,0.98847
23.25,0.98722
23.26,0.97046
23.27,0.93775
23.28,0.8902
23.29,0.83132
23.3,0.75961
23.31,0.68472
23.32,0.63833
23.33,0.63911
23.34,0.63928
23.35,0.63844
23.36,0.63862
23.37,0.63951
23.38,0.64083
23.39,0.6403
23.4,0.64045
23.41,0.64332
23.42,0.66406
23.43,0.6743
23.44,0.67023
23.45,0.65507
23.46,0.63896
23.47,0.64046
23.48,0.63921
23.49,0.6373
23.5,0.63903
23.51,0.63896
23.52,0.63974
23.53,0.63986
23.54,0.63979
23.55,0.64001
23.56,0.64039
23.57,0.63783
23.58,0.64012
23.59,0.63907
23.6,0.63967
23.61,0.6393
23.62,0.63934
23.63,0.6397
23.64,0.63852
23.65,0.63872
23.66,0.63952
23.67,0.63934
23.68,0.64036
23.69,0.64003
23.7,0.64031
23.71,0.6403
23.72,0.64035
23.73,0.64113
23.74,0.64051
23.75,0.63881
23.76,0.64072
23.77,0.63928
23.78,0.63882
23.79,0.63923
23.8,0.68245
23.81,0.75737
23.82,0.81626
23.83,0.85221
23.84,0.86822
23.85,0.86191
23.86,0.82474
23.87,0.76414
23.88,0.68348
23.89,0.63949
23.9,0.64068
23.91,0.63917
23.92,0.63842
23.93,0.63776
23.94,0.63763
23.95,0.78287
23.96,1.0768
23.97,1.3668
23.98,1.6569
23.99,1.9468
24,2.2105
24.01,1.9483
24.02,1.6565
24.03,1.3667
24.04,1.0768
24.05,0.7823
24.06,0.616
24.07,0.54087
24.08,0.46589
24.09,0.39801
24.1,0.4666
24.11,0.54148
24.12,0.61908
24.13,0.64083
24.14,0.63875
24.15,0.641
24.16,0.63924
24.17,0.63841
24.18,0.68589
24.19,0.76215
24.2,0.8305
24.21,0.88985
24.22,0.93745
24.23,0.97087
24.24,0.98827
24.25,0.98809
24.26,0.96965
24.27,0.93765
24.28,0.89142
24.29,0.83017
24.3,0.76276
24.31,0.68686
24.32,0.63921
24.33,0.63928
24.34,0.64016
24.35,0.63884
24.36,0.63883
24.37,0.63849
24.38,0.63997
24.39,0.63911
24.4,0.64003
24.41,0.6417
24.42,0.66341
24.43,0.67585
24.44,0.6719
24.45,0.65439
24.46,0.63942
24.47,0.63939
24.48,0.63963
24.49,0.6389
24.5,0.64058
24.51,0.63952
24.52,0.63925
24.53,0.64071
24.54,0.63809
24.55,0.63884
24.56,0.6402
24.57,0.63984
24.58,0.64058
24.59,0.63914
24.6,0.63926
24.61,0.64049
24.62,0.63929
24.63,0.64034
24.64,0.63883
24.65,0.64011
24.66,0.64
24.67,0.63975
24.68,0.63903
24.69,0.63918
24.7,0.64054
24.71,0.63959
24.72,0.63976
24.73,0.63966
24.74,0.63642
24.75,0.64159
24.76,0.63946
24.77,0.63891
24.78,0.63929
24.79,0.63864
24.8,0.68345
24.81,0.75826
24.82,0.81682
24.83,0.85311
24.84,0.86942
24.85,0.86168
24.86,0.82624
24.87,0.765
24.88,0.68384
24.89,0.63873
24.9,0.63978
24.91,0.63912
24.92,0.63892
24.93,0.64068
24.94,0.63754
24.95,0.78318
24.96,1.0761
24.97,1.3665
24.98,1.6588
24.99,1.9463
25,2.2087
25.01,1.9466
25.02,1.6571
25.03,1.3654
25.04,1.0752
25.05,0.78278
25.06,0.61698
25.07,0.54035
25.08,0.46647
25.09,0.3976
25.1,0.46589
25.11,0.54158
25.12,0.61752
25.13,0.63886
25.14,0.64011
25.15,0.63977
25.16,0.63966
25.17,0.63911
25.18,0.68586
25.19,0.76147
25.2,0.82948
25.21,0.89002
25.22,0.93768
25.23,0.97043
25.24,0.98759
25.25,0.98611
25.26,0.97056
25.27,0.93638
25.28,0.89123
25.29,0.83011
25.3,0.76103
25.31,0.68641
25.32,0.63775
25.33,0.63893
25.34,0.6391
25.35,0.64001
25.36,0.63929
25.37,0.63984
25.38,0.64008
25.39,0.64081
25.4,0.63876
25.41,0.64185
25.42,0.66418
25.43,0.67446
25.44,0.67112
25.45,0.65486
25.46,0.64158
25.47,0.63926
25.48,0.63897
25.49,0.63942
25.5,0.63804
25.51,0.63898
25.52,0.63944
25.53,0.63868
25.54,0.63929
25.55,0.6404
25.56,0.63927
25.57,0.63935
25.58,0.63887
25.59,0.64019
25.6,0.63943
25.61,0.64005
25.62,0.63946
25.63,0.64094
25.64,0.64163
25.65,0.63905
25.66,0.63956
25.67,0.64097
25.68,0.63937
25.69,0.63896
25.7,0.64022
25.71,0.64105
25.72,0.64104
25.73,0.63999
25.74,0.64056
25.75,0.63946
25.76,0.64015
25.77,0.63915
25.78,0.63928
25.79,0.63988
25.8,0.68201
25.81,0.75806
25.82,0.81867
25.83,0.85262
25.84,0.86851
25.85,0.86207
25.86,0.82443
25.87,0.76321
25.88,0.68126
25.89,0.63931
25.9,0.64053
25.91,0.63895
25.92,0.63925
25.93,0.63935
25.94,0.63737
25.95,0.78256
25.96,1.0756
25.97,1.3658
25.98,1.6586
25.99,1.9475
26,2.2099
26.01,1.9479
26.02,1.6589
26.03,1.3653
26.04,1.0765
26.05,0.78193
26.06,0.61692
26.07,0.54208
26.08,0.465
26.09,0.39812
26.1,0.46657
26.11,0.54176
26.12,0.61744
26.13,0.64046
26.14,0.6394
26.15,0.63912
26.16,0.63877
26.17,0.63945
26.18,0.68471
26.19,0.75996
26.2,0.83004
26.21,0.89072
26.22,0.93711
26.23,0.97079
26.24,0.98791
26.25,0.98923
26.26,0.9703
26.27,0.93776
26.28,0.88889
26.29,0.82983
26.3,0.76154
26.31,0.68699
26.32,0.63915
26.33,0.64043
26.34,0.63847
26.35,0.63726
26.36,0.63894
26.37,0.63834
26.38,0.63913
26.39,0.6398
26.4,0.64126
26.41,0.64086
26.42,0.66373
26.43,0.67432
26.44,0.67258
26.45,0.65523
26.46,0.64077
26.47,0.63919
26.48,0.63971
26.49,0.63928
26.5,0.64056
26.51,0.63955
26.52,0.63969
26.53,0.63963
26.54,0.64058
26.55,0.63984
26.56,0.63937
26.57,0.64014
26.58,0.63875
26.59,0.63943
26.6,0.64038
26.61,0.6393
26.62,0.6396
26.63,0.63963
26.64,0.63973
26.65,0.64069
26.66,0.64025
26.67,0.64029
26.68,0.64052
26.69,0.63837
26.7,0.64015
26.71,0.63825
26.72,0.63918
26.73,0.64094
26.74,0.63904
26.75,0.63977
26.76,0.6395
26.77,0.64061
26.78,0.63922
26.79,0.63787
26.8,0.68212
26.81,0.7584
26.82,0.81647
26.83,0.85251
26.84,0.8685
26.85,0.86244
26.86,0.82472
26.87,0.76334
26.88,0.68349
26.89,0.63854
26.9,0.64145
26.91,0.64019
26.92,0.63916
26.93,0.6396
26.94,0.63816
26.95,0.78513
26.96,1.0752
26.97,1.3673
26.98,1.6558
26.99,1.9477
27,2.2119
27.01,1.9491
27.02,1.6577
27.03,1.3671
27.04,1.0759
27.05,0.78338
27.06,0.61723
27.07,0.54249
27.08,0.46571
27.09,0.3989
27.1,0.46677
27.11,0.54244
27.12,0.61871
27.13,0.63966
27.14,0.63917
27.15,0.63977
27.16,0.63919
27.17,0.63845
27.18,0.68592
27.19,0.76168
27.2,0.82933
27.21,0.88932
27.22,0.9374
27.23,0.96939
27.24,0.98687
27.25,0.98739
27.26,0.97069
27.27,0.93811
27.28,0.88956
27.29,0.82996
27.3,0.76134
27.31,0.68465
27.32,0.63806
27.33,0.63813
27.34,0.63996
27.35,0.63764
27.36,0.63974
27.37,0.63969
27.38,0.63885
27.39,0.63933
27.4,0.63887
27.41,0.64349
27.42,0.6638
27.43,0.67427
27.44,0.67122
27.45,0.65549
27.46,0.6378
27.47,0.63922
27.48,0.63902
27.49,0.63898
27.5,0.64083
27.51,0.6386
27.52,0.63941
27.53,0.63988
27.54,0.64027
27.55,0.63835
27.56,0.64069
27.57,0.64119
27.58,0.63872
27.59,0.63901
27.6,0.6395
27.61,0.63782
27.62,0.64055
27.63,0.6388
27.64,0.63997
27.65,0.64052
27.66,0.6401
27.67,0.64032
27.68,0.64068
27.69,0.64005
27.7,0.63987
27.71,0.63931
27.72,0.63956
27.73,0.63891
27.74,0.63902
27.75,0.63901
27.76,0.63982
27.77,0.63966
27.78,0.63922
27.79,0.63746
27.8,0.68184
27.81,0.75652
27.82,0.81733
27.83,0.85125
27.84,0.86838
27.85,0.86147
27.86,0.82631
27.87,0.76463
27.88,0.68227
27.89,0.63947
27.9,0.63904
27.91,0.63855
27.92,0.6397
27.93,0.63864
27.94,0.6384
27.95,0.78363
27.96,1.0765
27.97,1.3675
27.98,1.6593
27.99,1.9479
28,2.2101
28.01,1.9482
28.02,1.6592
28.03,1.3679
28.04,1.0752
28.05,0.78375
28.06,0.6165
28.07,0.53993
28.08,0.46584
28.09,0.3979
28.1,0.46507
28.11,0.54262
28.12,0.6182
28.13,0.63912
28.14,0.64002
28.15,0.64044
28.16,0.63805
28.17,0.64003
28.18,0.68602
28.19,0.76129
28.2,0.83036
28.21,0.88978
28.22,0.93733
28.23,0.97098
28.24,0.9882
28.25,0.9871
28.26,0.96982
28.27,0.93698
28.28,0.88968
28.29,0.83094
28.3,0.76035
28.31,0.68587
28.32,0.63932
28.33,0.64012
28.34,0.63825
28.35,0.63842
28.36,0.64009
28.37,0.63903
28.38,0.63854
28.39,0.63862
28.4,0.64007
28.41,0.64136
28.42,0.66169
28.43,0.6737
28.44,0.67197
28.45,0.65644
28.46,0.63965
28.47,0.63947
28.48,0.63891
28.49,0.63811
28.5,0.63772
28.51,0.64025
28.52,0.63976
28.53,0.63977
28.54,0.64174
28.55,0.63943
28.56,0.63893
28.57,0.64102
28.58,0.63918
28.59,0.63885
28.6,0.64069
28.61,0.64016
28.62,0.63986
28.63,0.63947
28.64,0.64016
28.65,0.64049
28.66,0.63858
28.67,0.63977
28.68,0.63879
28.69,0.63907
28.7,0.64018
28.71,0.63902
28.72,0.64147
28.73,0.63969
28.74,0.64115
28.75,0.64018
28.76,0.63986
28.77,0.63892
28.78,0.63938
28.79,0.63866
28.8,0.68233
28.81,0.75627
28.82,0.81613
28.83,0.85198
28.84,0.86919
28.85,0.86226
28.86,0.82681
28.87,0.76404
28.88,0.68285
28.89,0.63983
28.9,0.64004
28.91,0.63947
28.92,0.64109
28.93,0.63939
28.94,0.63881
28.95,0.78276
28.96,1.0764
28.97,1.3678
28.98,1.6572
28.99,1.9486
29,2.2114
29.01,1.9465
29.02,1.6577
29.03,1.3677
29.04,1.0752
29.05,0.78347
29.06,0.61766
29.07,0.54168
29.08,0.46594
29.09,0.39829
29.1,0.46563
29.11,0.54162
29.12,0.61821
29.13,0.63918
29.14,0.63955
29.15,0.64042
29.16,0.6377
29.17,0.63829
29.18,0.68554
29.19,0.76149
29.2,0.82948
29.21,0.88954
29.22,0.93747
29.23,0.97106
29.24,0.98812
29.25,0.98727
29.26,0.97138
29.27,0.93768
29.28,0.89139
29.29,0.83077
29.3,0.76178
29.31,0.68597
29.32,0.64107
29.33,0.6391
29.34,0.64098
29.35,0.64068
29.36,0.63901
29.37,0.64038
29.38,0.64099
29.39,0.63885
29.4,0.64026
29.41,0.64178
29.42,0.66217
29.43,0.67275
29.44,0.67114
29.45,0.65536
29.46,0.63836
29.47,0.6392
29.48,0.63987
29.49,0.63902
29.5,0.63927
29.51,0.63888
29.52,0.63953
29.53,0.63901
29.54,0.64017
29.55,0.64107
29.56,0.64014
29.57,0.63959
29.58,0.64058
29.59,0.63886
29.6,0.63874
29.61,0.63984
29.62,0.63796
29.63,0.64038
29.64,0.63974
29.65,0.63969
29.66,0.63965
29.67,0.64145
29.68,0.63839
29.69,0.63986
29.7,0.63938
29.71,0.64025
29.72,0.63961
29.73,0.63915
29.74,0.64001
29.75,0.63988
29.76,0.64088
29.77,0.6395
29.78,0.64111
29.79,0.63881
29.8,0.6827
29.81,0.75604
29.82,0.81716
29.83,0.85357
29.84,0.86862
29.85,0.8618
29.86,0.82833
29.87,0.76417
29.88,0.68203
29.89,0.63736
29.9,0.64055
29.91,0.63767
29.92,0.6406
29.93,0.6399
29.94,0.63832
29.95,0.78444
29.96,1.0744
29.97,1.3658
29.98,1.6563
29.99,1.9476
30,2.2096
30.01,1.9457
30.02,1.658
30.03,1.3661
30.04,1.0759
30.05,0.78215
30.06,0.61681
30.07,0.54296
30.08,0.46589
30.09,0.39709
30.1,0.46572
30.11,0.54174
30.12,0.61869
30.13,0.63917
30.14,0.63867
30.15,0.63913
30.16,0.64065
30.17,0.63967
30.18,0.68545
30.19,0.76109
30.2,0.83088
30.21,0.89036
30.22,0.93795
30.23,0.96925
30.24,0.9887
30.25,0.98708
30.26,0.97017
30.27,0.93824
30.28,0.89055
30.29,0.83064
30.3,0.76258
30.31,0.68534
30.32,0.63757
30.33,0.63997
30.34,0.64011
30.35,0.63946
30.36,0.64006
30.37,0.63897
30.38,0.6401
30.39,0.63964
30.4,0.64098
30.41,0.64165
30.42,0.66201
30.43,0.67478
30.44,0.67135
30.45,0.65444
30.46,0.64004
30.47,0.63892
30.48,0.63979
30.49,0.63946
30.5,0.63883
30.51,0.6406
30.52,0.64057
30.53,0.63908
30.54,0.63913
30.55,0.63978
30.56,0.64005
30.57,0.63887
30.58,0.63899
30.59,0.63941
30.6,0.63962
30.61,0.63932
30.62,0.63984
30.63,0.64049
30.64,0.64083
30.65,0.63898
30.66,0.6392
30.67,0.64069
30.68,0.63994
30.69,0.63928
30.7,0.63951
30.71,0.64114
30.72,0.63868
30.73,0.63845
30.74,0.64005
30.75,0.63973
30.76,0.64095
30.77,0.63964
30.78,0.63989
30.79,0.639
30.8,0.68283
30.81,0.75702
30.82,0.8165
30.83,0.85013
30.84,0.86948
30.85,0.86147
30.86,0.82568
30.87,0.76419
30.88,0.6833
30.89,0.63819
30.9,0.64025
30.91,0.6398
30.92,0.64004
30.93,0.63986
30.94,0.63686
30.95,0.78226
30.96,1.0756
30.97,1.3662
30.98,1.6566
30.99,1.9484
31,2.2095
31.01,1.9477
31.02,1.6558
31.03,1.3665
31.04,1.0765
31.05,0.78255
31.06,0.61814
31.07,0.54149
31.08,0.46599
31.09,0.39878
31.1,0.46686
31.11,0.54248
31.12,0.61846
31.13,0.64007
31.14,0.63965
31.15,0.6401
31.16,0.63942
31.17,0.63975
31.18,0.68589
31.19,0.76115
31.2,0.82956
31.21,0.89005
31.22,0.93862
31.23,0.9709
31.24,0.9875
31.25,0.98922
31.26,0.97021
31.27,0.93714
31.28,0.89012
31.29,0.83149
31.3,0.7607
31.31,0.68581
31.32,0.63799
31.33,0.64002
31.34,0.64035
31.35,0.64084
31.36,0.64002
31.37,0.63961
31.38,0.63834
31.39,0.64132
31.4,0.64124
31.41,0.64321
31.42,0.66356
31.43,0.67368
31.44,0.67239
31.45,0.6543
31.46,0.64004
31.47,0.63972
31.48,0.64006
31.49,0.63931
31.5,0.63954
31.51,0.64094
31.52,0.63797
31.53,0.63922
31.54,0.63887
31.55,0.63975
31.56,0.63953
31.57,0.63917
31.58,0.63827
31.59,0.63953
31.6,0.63928
31.61,0.63936
31.62,0.63794
31.63,0.64163
31.64,0.63947
31.65,0.64035
31.66,0.6377
31.67,0.63995
31.68,0.63984
31.69,0.63933
31.7,0.63811
31.71,0.6397
31.72,0.64125
31.73,0.63996
31.74,0.63864
31.75,0.63813
31.76,0.63917
31.77,0.641
31.78,0.63896
31.79,0.63892
31.8,0.68237
31.81,0.75823
31.82,0.8163
31.83,0.85347
31.84,0.86907
31.85,0.86188
31.86,0.82452
31.87,0.76459
31.88,0.68284
31.89,0.63919
31.9,0.64037
31.91,0.64036
31.92,0.64127
31.93,0.6394
31.94,0.63792
31.95,0.78324
31.96,1.0763
31.97,1.3665
31.98,1.6571
31.99,1.9475
32,2.2108
32.01,1.9474
32.02,1.6574
32.03,1.3673
32.04,1.0755
32.05,0.78378
32.06,0.61554
32.07,0.54314
32.08,0.46731
32.09,0.39802
32.1,0.46742
32.11,0.54216
32.12,0.61959
32.13,0.63842
32.14,0.64024
32.15,0.63892
32.16,0.64022
32.17,0.63935
32.18,0.68511
32.19,0.7604
32.2,0.8316
32.21,0.89053
32.22,0.93676
32.23,0.9701
32.24,0.98831
32.25,0.98787
32.26,0.97054
32.27,0.93668
32.28,0.89015
32.29,0.83043
32.3,0.76102
32.31,0.68508
32.32,0.63892
32.33,0.64016
32.34,0.6383
32.35,0.63976
32.36,0.64061
32.37,0.63954
32.38,0.63881
32.39,0.63943
32.4,0.6398
32.41,0.64079
32.42,0.66194
32.43,0.67482
32.44,0.67202
32.45,0.65514
32.46,0.63703
32.47,0.63957
32.48,0.63904
32.49,0.63967
32.5,0.64014
32.51,0.63899
32.52,0.64088
32.53,0.64001
32.54,0.64004
32.55,0.6413
32.56,0.63933
32.57,0.63942
32.58,0.6388
32.59,0.63915
32.6,0.6375
32.61,0.63916
32.62,0.6399
32.63,0.63976
32.64,0.64116
32.65,0.63993
32.66,0.63935
32.67,0.63854
32.68,0.64011
32.69,0.63852
32.7,0.64
32.71,0.63808
32.72,0.64027
32.73,0.6391
32.74,0.64101
32.75,0.64065
32.76,0.63889
32.77,0.63993
32.78,0.63928
32.79,0.63867
32.8,0.68236
32.81,0.75724
32.82,0.81684
32.83,0.85231
32.84,0.87
32.85,0.86092
32.86,0.82631
32.87,0.76597
32.88,0.68242
32.89,0.63849
32.9,0.6402
32.91,0.6402
32.92,0.63831
32.93,0.6402
32.94,0.63883
32.95,0.78451
32.96,1.0754
32.97,1.366
32.98,1.6559
32.99,1.9475
33,2.2104
33.01,1.947
33.02,1.6584
33.03,1.3662
33.04,1.074
33.05,0.78431
33.06,0.6173
33.07,0.54054
33.08,0.46716
33.09,0.39688
33.1,0.46641
33.11,0.54184
33.12,0.61735
33.13,0.64033
33.14,0.6386
33.15,0.63926
33.16,0.63856
33.17,0.63715
33.18,0.68741
33.19,0.76099
33.2,0.83063
33.21,0.88893
33.22,0.93661
33.23,0.96939
33.24,0.98847
33.25,0.98629
33.26,0.97092
33.27,0.93816
33.28,0.89031
33.29,0.8299
33.3,0.76266
33.31,0.6875
33.32,0.63996
33.33,0.63926
33.34,0.64044
33.35,0.63964
33.36,0.63891
33.37,0.6389
33.38,0.64115
33.39,0.63958
33.4,0.6391
33.41,0.64226
33.42,0.66226
33.43,0.674
33.44,0.67118
33.45,0.65416
33.46,0.6398
33.47,0.64007
33.48,0.64075
33.49,0.64053
33.5,0.63945
33.51,0.63929
33.52,0.64015
33.53,0.64019
33.54,0.63987
33.55,0.64025
33.56,0.64072
33.57,0.63866
33.58,0.64052
33.59,0.63879
33.6,0.63995
33.61,0.63907
33.62,0.64037
33.63,0.63853
33.64,0.64116
33.65,0.63942
33.66,0.64003
33.67,0.63963
33.68,0.64048
33.69,0.64068
33.7,0.63836
33.71,0.64011
33.72,0.6396
33.73,0.63912
33.74,0.64042
33.75,0.63865
33.76,0.64136
33.77,0.63979
33.78,0.64011
33.79,0.63871
33.8,0.68218
33.81,0.75808
33.82,0.81739
33.83,0.85192
33.84,0.86989
33.85,0.86222
33.86,0.82614
33.87,0.76528
33.88,0.68235
33.89,0.63817
33.9,0.64076
33.91,0.63854
33.92,0.63799
33.93,0.64079
33.94,0.63928
33.95,0.78322
33.96,1.0759
33.97,1.3663
33.98,1.6577
33.99,1.9478
34,2.2082
34.01,1.9456
34.02,1.6576
34.03,1.3655
34.04,1.0753
34.05,0.7834
34.06,0.61739
34.07,0.54144
34.08,0.46528
34.09,0.39755
34.1,0.46537
34.11,0.54052
34.12,0.61798
34.13,0.63975
34.14,0.63893
34.15,0.63924
34.16,0.63926
34.17,0.63762
34.18,0.688
34.19,0.76071
34.2,0.82962
34.21,0.89055
34.22,0.93783
34.23,0.97012
34.24,0.98921
34.25,0.98705
34.26,0.97044
34.27,0.93855
34.28,0.88983
34.29,0.83018
34.3,0.76168
34.31,0.68586
34.32,0.63915
34.33,0.64004
34.34,0.6405
34.35,0.64138
34.36,0.64046
34.37,0.63926
34.38,0.64113
34.39,0.63836
34.4,0.64051
34.41,0.64183
34.42,0.6629
34.43,0.67321
34.44,0.67079
34.45,0.65545
34.46,0.64177
34.47,0.63829
34.48,0.64028
34.49,0.63993
34.5,0.63934
34.51,0.63895
34.52,0.64081
34.53,0.64082
34.54,0.64047
34.55,0.64012
34.56,0.64009
34.57,0.63854
34.58,0.63926
34.59,0.63915
34.6,0.63865
34.61,0.6407
34.62,0.63854
34.63,0.63999
34.64,0.64131
34.65,0.64027
34.66,0.63771
34.67,0.64089
34.68,0.63905
34.69,0.63964
34.7,0.64081
34.71,0.63996
34.72,0.63939
34.73,0.63944
34.74,0.64071
34.75,0.63896
34.76,0.63944
34.77,0.64093
34.78,0.63995
34.79,0.63863
34.8,0.68331
34.81,0.75817
34.82,0.81681
34.83,0.85089
34.84,0.8675
34.85,0.86172
34.86,0.82429
34.87,0.76521
34.88,0.68302
34.89,0.63997
34.9,0.63965
34.91,0.64072
34.92,0.64063
34.93,0.63947
34.94,0.6378
34.95,0.78297
34.96,1.0775
34.97,1.3667
34.98,1.6574
34.99,1.9485
35,2.2106
35.01,1.949
35.02,1.6564
35.03,1.365
35.04,1.0759
35.05,0.78208
35.06,0.61628
35.07,0.54274
35.08,0.46545
35.09,0.39833
35.1,0.46556
35.11,0.54064
35.12,0.61731
35.13,0.6389
35.14,0.63892
35.15,0.64035
35.16,0.63935
35.17,0.64071
35.18,0.68561
35.19,0.7622
35.2,0.82973
35.21,0.89094
35.22,0.93862
35.23,0.97049
35.24,0.98783
35.25,0.9874
35.26,0.9705
35.27,0.93707
35.28,0.88976
35.29,0.83218
35.3,0.76275
35.31,0.68713
35.32,0.63894
35.33,0.64067
35.34,0.63923
35.35,0.63822
35.36,0.64031
35.37,0.63955
35.38,0.63837
35.39,0.63948
35.4,0.63865
35.41,0.64321
35.42,0.66189
35.43,0.67414
35.44,0.67037
35.45,0.65471
35.46,0.63941
35.47,0.63862
35.48,0.64008
35.49,0.63991
35.5,0.64051
35.51,0.63826
35.52,0.63739
35.53,0.63983
35.54,0.63987
35.55,0.63936
35.56,0.64042
35.57,0.63991
35.58,0.63914
35.59,0.6408
35.6,0.63899
35.61,0.64033
35.62,0.64036
35.63,0.64006
35.64,0.64019
35.65,0.63997
35.66,0.63877
35.67,0.63832
35.68,0.64031
35.69,0.64075
35.7,0.64094
35.71,0.63884
35.72,0.63862
35.73,0.63962
35.74,0.64039
35.75,0.63905
35.76,0.63941
35.77,0.63989
35.78,0.63943
35.79,0.63937
35.8,0.6834
35.81,0.7561
35.82,0.81733
35.83,0.85089
35.84,0.86862
35.85,0.86218
35.86,0.82444
35.87,0.76541
35.88,0.68257
35.89,0.63997
35.9,0.63997
35.91,0.63787
35.92,0.63857
35.93,0.63878
35.94,0.63917
35.95,0.78419
35.96,1.0761
35.97,1.3668
35.98,1.6577
35.99,1.9491
36,2.209
36.01,1.9473
36.02,1.6567
36.03,1.3667
36.04,1.0767
36.05,0.78329
36.06,0.6166
36.07,0.54109
36.08,0.46577
36.09,0.3968
36.1,0.46481
36.11,0.54122
36.12,0.61792
36.13,0.63989
36.14,0.63849
36.15,0.63942
36.16,0.63797
36.17,0.63835
36.18,0.68716
36.19,0.76025
36.2,0.82934
36.21,0.89101
36.22,0.93728
36.23,0.97156
36.24,0.98755
36.25,0.98997
36.26,0.97144
36.27,0.93751
36.28,0.89065
36.29,0.83006
36.3,0.76068
36.31,0.68714
36.32,0.63854
36.33,0.64115
36.34,0.63956
36.35,0.63789
36.36,0.63931
36.37,0.6401
36.38,0.6394
36.39,0.63859
36.4,0.63986
36.41,0.64268
36.42,0.66245
36.43,0.67382
36.44,0.67156
36.45,0.655
36.46,0.63945
36.47,0.63833
36.48,0.64016
36.49,0.63968
36.5,0.64027
36.51,0.6393
36.52,0.64018
36.53,0.63923
36.54,0.63965
36.55,0.63828
36.56,0.64023
36.57,0.63908
36.58,0.63941
36.59,0.63896
36.6,0.6391
36.61,0.63807
36.62,0.63835
36.63,0.63889
36.64,0.63926
36.65,0.63835
36.66,0.63964
36.67,0.6395
36.68,0.63909
36.69,0.63897
36.7,0.64072
36.71,0.63891
36.72,0.64033
36.73,0.63977
36.74,0.64104
36.75,0.63913
36.76,0.63975
36.77,0.6398
36.78,0.63763
36.79,0.63935
36.8,0.68397
36.81,0.75794
36.82,0.81681
36.83,0.85368
36.84,0.87005
36.85,0.86027
36.86,0.82644
36.87,0.76341
36.88,0.68416
36.89,0.63911
36.9,0.63927
36.91,0.64026
36.92,0.63854
36.93,0.639
36.94,0.63832
36.95,0.7835
36.96,1.0757
36.97,1.3672
36.98,1.6565
36.99,1.9475
37,2.21
37.01,1.947
37.02,1.6579
37.03,1.366
37.04,1.0761
37.05,0.78266
37.06,0.6191
37.07,0.54111
37.08,0.46664
37.09,0.39801
37.1,0.46749
37.11,0.54314
37.12,0.61764
37.13,0.63926
37.14,0.64103
37.15,0.63965
37.16,0.63806
37.17,0.63866
37.18,0.68782
37.19,0.76101
37.2,0.82865
37.21,0.89085
37.22,0.93757
37.23,0.97125
37.24,0.98613
37.25,0.98715
37.26,0.97003
37.27,0.9373
37.28,0.88883
37.29,0.82871
37.3,0.76044
37.31,0.68802
37.32,0.63876
37.33,0.63927
37.34,0.64093
37.35,0.64026
37.36,0.64143
37.37,0.63915
37.38,0.63999
37.39,0.63973
37.4,0.64054
37.41,0.64174
37.42,0.6631
37.43,0.67398
37.44,0.67185
37.45,0.65419
37.46,0.63877
37.47,0.63948
37.48,0.63928
37.49,0.63983
37.5,0.63925
37.51,0.63981
37.52,0.64052
37.53,0.63964
37.54,0.63921
37.55,0.63924
37.56,0.63971
37.57,0.63966
37.58,0.63911
37.59,0.63862
37.6,0.64036
37.61,0.63976
37.62,0.63967
37.63,0.63916
37.64,0.63915
37.65,0.64019
37.66,0.63913
37.67,0.64122
37.68,0.63991
37.69,0.64081
37.7,0.6397
37.71,0.64004
37.72,0.63837
37.73,0.64011
37.74,0.63813
37.75,0.64007
37.76,0.63971
37.77,0.63942
37.78,0.63926
37.79,0.63881
37.8,0.68199
37.81,0.75751
37.82,0.81598
37.83,0.85156
37.84,0.87024
37.85,0.85946
37.86,0.82601
37.87,0.76476
37.88,0.68288
37.89,0.64023
37.9,0.63995
37.91,0.63834
37.92,0.63927
37.93,0.63907
37.94,0.63778
37.95,0.78425
37.96,1.0763
37.97,1.3665
37.98,1.6569
37.99,1.9482
38,2.2106
38.01,1.9488
38.02,1.6579
38.03,1.3659
38.04,1.0763
38.05,0.78296
38.06,0.61646
38.07,0.54341
38.08,0.46499
38.09,0.39888
38.1,0.46638
38.11,0.54182
38.12,0.61793
38.13,0.63965
38.14,0.63863
38.15,0.63927
38.16,0.63963
38.17,0.63898
38.18,0.68605
38.19,0.76088
38.2,0.8294
38.21,0.88951
38.22,0.9379
38.23,0.9715
38.24,0.98761
38.25,0.98719
38.26,0.97145
38.27,0.93771
38.28,0.89004
38.29,0.83025
38.3,0.76076
38.31,0.68705
38.32,0.63847
38.33,0.64043
38.34,0.63961
38.35,0.6404
38.36,0.63955
38.37,0.63841
38.38,0.63937
38.39,0.6379
38.4,0.64073
38.41,0.64304
38.42,0.66152
38.43,0.67377
38.44,0.67116
38.45,0.65468
38.46,0.64085
38.47,0.63942
38.48,0.64022
38.49,0.63874
38.5,0.64005
38.51,0.63972
38.52,0.64047
38.53,0.64025
38.54,0.64078
38.55,0.63933
38.56,0.64027
38.57,0.6391
38.58,0.63912
38.59,0.63954
38.6,0.6405
38.61,0.64089
38.62,0.63893
38.63,0.63983
38.64,0.63902
38.65,0.64113
38.66,0.63914
38.67,0.63915
38.68,0.64138
38.69,0.64046
38.7,0.6418
38.71,0.64084
38.72,0.64029
38.73,0.63935
38.74,0.63847
38.75,0.63921
38.76,0.63895
38.77,0.64062
38.78,0.63834
38.79,0.63763
38.8,0.68171
38.81,0.75554
38.82,0.81656
38.83,0.85259
38.84,0.86865
38.85,0.8616
38.86,0.82599
38.87,0.76567
38.88,0.68322
38.89,0.63981
38.9,0.63936
38.91,0.63979
38.92,0.63907
38.93,0.63889
38.94,0.63709
38.95,0.78289
38.96,1.0756
38.97,1.3662
38.98,1.6556
38.99,1.9479
39,2.2099
39.01,1.949
39.02,1.659
39.03,1.3682
39.04,1.0746
39.05,0.78229
39.06,0.61675
39.07,0.54416
39.08,0.46652
39.09,0.39774
39.1,0.46647
39.11,0.54176
39.12,0.61926
39.13,0.63914
39.14,0.63923
39.15,0.63932
39.16,0.64014
39.17,0.63845
39.18,0.68605
39.19,0.76201
39.2,0.83009
39.21,0.89067
39.22,0.9383
39.23,0.97088
39.24,0.98771
39.25,0.98764
39.26,0.97025
39.27,0.93885
39.28,0.89082
39.29,0.83031
39.3,0.76284
39.31,0.68743
39.32,0.63845
39.33,0.63815
39.34,0.63895
39.35,0.63854
39.36,0.63923
39.37,0.64005
39.38,0.63935
39.39,0.63924
39.4,0.64003
39.41,0.64298
39.42,0.66266
39.43,0.67324
39.44,0.6728
39.45,0.65279
39.46,0.63922
39.47,0.63989
39.48,0.63885
39.49,0.63947
39.5,0.64125
39.51,0.63783
39.52,0.63914
39.53,0.63912
39.54,0.64043
39.55,0.64096
39.56,0.6411
39.57,0.63872
39.58,0.63975
39.59,0.63996
39.6,0.639
39.61,0.6395
39.62,0.63897
39.63,0.64029
39.64,0.63868
39.65,0.64019
39.66,0.6392
39.67,0.63917
39.68,0.64034
39.69,0.63978
39.7,0.63973
39.71,0.63963
39.72,0.64015
39.73,0.63946
39.74,0.64036
39.75,0.63903
39.76,0.63847
39.77,0.64154
39.78,0.63962
39.79,0.64111
39.8,0.68219
39.81,0.75798
39.82,0.81522
39.83,0.85275
39.84,0.87014
39.85,0.86088
39.86,0.82533
39.87,0.7642
39.88,0.68157
39.89,0.63777
39.9,0.63924
39.91,0.63855
39.92,0.64088
39.93,0.63798
39.94,0.63906
39.95,0.78226
39.96,1.0745
39.97,1.3656
39.98,1.6571
39.99,1.947
40,2.2102
40.01,1.9475
40.02,1.6565
40.03,1.3675
40.04,1.0751
40.05,0.78253
40.06,0.6175
40.07,0.54086
40.08,0.46582
40.09,0.39786
40.1,0.46678
40.11,0.54209
40.12,0.61845
40.13,0.63959
40.14,0.63929
40.15,0.63943
40.16,0.63873
40.17,0.63778
40.18,0.68591
40.19,0.76107
40.2,0.83219
40.21,0.88929
40.22,0.93735
40.23,0.96976
40.24,0.98805
40.25,0.98775
40.26,0.97032
40.27,0.93705
40.28,0.89071
40.29,0.82981
40.3,0.76046
40.31,0.68528
40.32,0.63951
40.33,0.63876
40.34,0.64015
40.35,0.63993
40.36,0.63937
40.37,0.64056
40.38,0.64053
40.39,0.63862
40.4,0.64095
40.41,0.64114
40.42,0.66228
40.43,0.67478
40.44,0.6726
40.45,0.65566
40.46,0.63924
40.47,0.64065
40.48,0.63925
40.49,0.63985
40.5,0.63901
40.51,0.63933
40.52,0.63894
40.53,0.63896
40.54,0.63998
40.55,0.64039
40.56,0.64047
40.57,0.64084
40.58,0.6396
40.59,0.63926
40.6,0.63864
40.61,0.64063
40.62,0.64107
40.63,0.64051
40.64,0.63957
40.65,0.64067
40.66,0.63736
40.67,0.63874
40.68,0.6397
40.69,0.64001
40.7,0.63834
40.71,0.63899
40.72,0.64067
40.73,0.63906
40.74,0.63984
40.75,0.63988
40.76,0.63964
40.77,0.64015
40.78,0.64065
40.79,0.6394
40.8,0.68067
40.81,0.75763
40.82,0.81572
40.83,0.85252
40.84,0.8688
40.85,0.86184
40.86,0.82471
40.87,0.76583
40.88,0.68194
40.89,0.64012
40.9,0.64015
40.91,0.63973
40.92,0.63971
40.93,0.6389
40.94,0.63862
40.95,0.78182
40.96,1.0743
40.97,1.3656
40.98,1.658
40.99,1.9482
41,2.2104
41.01,1.9474
41.02,1.657
41.03,1.3666
41.04,1.0744
41.05,0.78308
41.06,0.61585
41.07,0.54189
41.08,0.46812
41.09,0.39688
41.1,0.46602
41.11,0.54208
41.12,0.61911
41.13,0.63845
41.14,0.6379
41.15,0.63928
41.16,0.63779
41.17,0.63845
41.18,0.68575
41.19,0.76183
41.2,0.82969
41.21,0.88972
41.22,0.93796
41.23,0.97063
41.24,0.9877
41.25,0.98699
41.26,0.96909
41.27,0.93913
41.28,0.88856
41.29,0.82995
41.3,0.76111
41.31,0.68676
41.32,0.63856
41.33,0.63895
41.34,0.63909
41.35,0.63877
41.36,0.639
41.37,0.63981
41.38,0.64037
41.39,0.63912
41.4,0.63992
41.41,0.64346
41.42,0.6601
41.43,0.67426
41.44,0.67135
41.45,0.65425
41.46,0.64045
41.47,0.63831
41.48,0.64039
41.49,0.64023
41.5,0.63887
41.51,0.64045
41.52,0.63965
41.53,0.63813
41.54,0.6386
41.55,0.63922
41.56,0.63814
41.57,0.63848
41.58,0.63961
41.59,0.63962
41.6,0.63945
41.61,0.64092
41.62,0.63983
41.63,0.64062
41.64,0.63939
41.65,0.63861
41.66,0.63978
41.67,0.6379
41.68,0.63752
41.69,0.63881
41.7,0.63988
41.71,0.64032
41.72,0.64003
41.73,0.64049
41.74,0.63903
41.75,0.63941
41.76,0.63956
41.77,0.63989
41.78,0.63888
41.79,0.63947
41.8,0.68265
41.81,0.757
41.82,0.81622
41.83,0.85396
41.84,0.86895
41.85,0.8615
41.86,0.82587
41.87,0.76504
41.88,0.68219
41.89,0.63951
41.9,0.64014
41.91,0.64038
41.92,0.64062
41.93,0.6391
41.94,0.6371
41.95,0.78263
41.96,1.0753
41.97,1.3674
41.98,1.6579
41.99,1.9494
42,2.2101
42.01,1.9459
42.02,1.6562
42.03,1.3653
42.04,1.0743
42.05,0.78245
42.06,0.61545
42.07,0.53993
42.08,0.46609
42.09,0.39822
42.1,0.46651
42.11,0.54122
42.12,0.61839
42.13,0.64071
42.14,0.63993
42.15,0.63935
42.16,0.63987
42.17,0.63837
42.18,0.68619
42.19,0.76199
42.2,0.83055
42.21,0.89006
42.22,0.93698
42.23,0.97021
42.24,0.98751
42.25,0.98711
42.26,0.96929
42.27,0.93735
42.28,0.89222
42.29,0.83099
42.3,0.76085
42.31,0.68597
42.32,0.63716
42.33,0.64023
42.34,0.6399
42.35,0.64037
42.36,0.64131
42.37,0.64
42.38,0.6393
42.39,0.64043
42.4,0.63797
42.41,0.64139
42.42,0.66163
42.43,0.67349
42.44,0.67179
42.45,0.65571
42.46,0.63964
42.47,0.63997
42.48,0.6413
42.49,0.6384
42.5,0.63946
42.51,0.63996
42.52,0.6394
42.53,0.63999
42.54,0.63787
42.55,0.64142
42.56,0.64201
42.57,0.64014
42.58,0.63899
42.59,0.63931
42.6,0.64015
42.61,0.64018
42.62,0.63952
42.63,0.63963
42.64,0.63981
42.65,0.64011
42.66,0.63906
42.67,0.6394
42.68,0.63926
42.69,0.64057
42.7,0.63944
42.71,0.64047
42.72,0.64003
42.73,0.63848
42.74,0.63917
42.75,0.63916
42.76,0.64067
42.77,0.63883
42.78,0.63788
42.79,0.63932
42.8,0.68155
42.81,0.75787
42.82,0.81577
42.83,0.85174
42.84,0.86914
42.85,0.86129
42.86,0.82502
42.87,0.76496
42.88,0.68293
42.89,0.63851
42.9,0.64002
42.91,0.63943
42.92,0.63987
42.93,0.63911
42.94,0.63777
42.95,0.78376
42.96,1.0757
42.97,1.3668
42.98,1.6577
42.99,1.9472
43,2.2106
43.01,1.9494
43.02,1.6569
43.03,1.3649
43.04,1.0752
43.05,0.78221
43.06,0.61665
43.07,0.54173
43.08,0.46504
43.09,0.39699
43.1,0.46479
43.11,0.54202
43.12,0.61887
43.13,0.63882
43.14,0.64015
43.15,0.63927
43.16,0.63846
43.17,0.63865
43.18,0.68491
43.19,0.76245
43.2,0.83041
43.21,0.88986
43.22,0.93759
43.23,0.9688
43.24,0.98753
43.25,0.98869
43.26,0.97049
43.27,0.93827
43.28,0.88959
43.29,0.8302
43.3,0.76167
43.31,0.68576
43.32,0.63934
43.33,0.63902
43.34,0.63877
43.35,0.63878
43.36,0.63881
43.37,0.64012
43.38,0.63771
43.39,0.64154
43.4,0.63886
43.41,0.64152
43.42,0.66009
43.43,0.67612
43.44,0.67034
43.45,0.65585
43.46,0.64
43.47,0.6375
43.48,0.63967
43.49,0.63989
43.5,0.63968
43.51,0.64001
43.52,0.63873
43.53,0.63867
43.54,0.63901
43.55,0.64018
43.56,0.63983
43.57,0.63857
43.58,0.63985
43.59,0.63939
43.6,0.63899
43.61,0.64035
43.62,0.63906
43.63,0.63903
43.64,0.63992
43.65,0.64013
43.66,0.63931
43.67,0.63902
43.68,0.63959
43.69,0.63933
43.7,0.63895
43.71,0.63942
43.72,0.64041
43.73,0.63814
43.74,0.6384
43.75,0.63922
43.76,0.6384
43.77,0.63997
43.78,0.63896
43.79,0.63894
43.8,0.68189
43.81,0.75752
43.82,0.81627
43.83,0.85327
43.84,0.86994
43.85,0.86076
43.86,0.82449
43.87,0.76422
43.88,0.68305
43.89,0.63925
43.9,0.64049
43.91,0.63898
43.92,0.63854
43.93,0.63977
43.94,0.63778
43.95,0.7845
43.96,1.0757
43.97,1.3668
43.98,1.6558
43.99,1.9479
44,2.2113
44.01,1.9484
44.02,1.6584
44.03,1.3654
44.04,1.0753
44.05,0.78312
44.06,0.61723
44.07,0.53988
44.08,0.46728
44.09,0.39679
44.1,0.46585
44.11,0.54306
44.12,0.61726
44.13,0.63957
44.14,0.63962
44.15,0.63835
44.16,0.63944
44.17,0.6387
44.18,0.68679
44.19,0.761
44.2,0.83046
44.21,0.88924
44.22,0.93791
44.23,0.97003
44.24,0.98859
44.25,0.98902
44.26,0.97017
44.27,0.93638
44.28,0.89004
44.29,0.83018
44.3,0.75992
44.31,0.68609
44.32,0.63998
44.33,0.6388
44.34,0.63972
44.35,0.64127
44.36,0.63968
44.37,0.6392
44.38,0.6399
44.39,0.63907
44.4,0.63868
44.41,0.64192
44.42,0.6631
44.43,0.67431
44.44,0.67133
44.45,0.65515
44.46,0.63964
44.47,0.63806
44.48,0.63927
44.49,0.6396
44.5,0.63867
44.51,0.64007
44.52,0.64168
44.53,0.63827
44.54,0.63899
44.55,0.63952
44.56,0.63911
44.57,0.64006
44.58,0.63911
44.59,0.64026
44.6,0.63936
44.61,0.64009
44.62,0.63868
44.63,0.64043
44.64,0.63794
44.65,0.64064
44.66,0.6398
44.67,0.63794
44.68,0.64046
44.69,0.63747
44.7,0.64066
44.71,0.6405
44.72,0.63936
44.73,0.63888
44.74,0.64163
44.75,0.63913
44.76,0.64008
44.77,0.63951
44.78,0.63908
44.79,0.63646
44.8,0.68188
44.81,0.75738
44.82,0.81648
44.83,0.85099
44.84,0.86903
44.85,0.86245
44.86,0.82664
44.87,0.76445
44.88,0.68406
44.89,0.6394
44.9,0.64003
44.91,0.64037
44.92,0.63809
44.93,0.63834
44.94,0.63855
44.95,0.78312
44.96,1.076
44.97,1.3682
44.98,1.6563
44.99,1.9473
45,2.2099
45.01,1.948
45.02,1.6559
45.03,1.3666
45.04,1.0761
45.05,0.78266
45.06,0.61603
45.07,0.54362
45.08,0.46651
45.09,0.3987
45.1,0.46596
45.11,0.54185
45.12,0.61868
45.13,0.63805
45.14,0.64018
45.15,0.63913
45.16,0.6408
45.17,0.63866
45.18,0.68717
45.19,0.76219
45.2,0.83008
45.21,0.89009
45.22,0.9371
45.23,0.96971
45.24,0.98757
45.25,0.98616
45.26,0.97112
45.27,0.93646
45.28,0.89025
45.29,0.82992
45.3,0.76172
45.31,0.68635
45.32,0.63826
45.33,0.64063
45.34,0.6397
45.35,0.63939
45.36,0.63908
45.37,0.63966
45.38,0.64042
45.39,0.63845
45.4,0.64126
45.41,0.64183
45.42,0.66289
45.43,0.67368
45.44,0.67016
45.45,0.65541
45.46,0.63832
45.47,0.6393
45.48,0.63972
45.49,0.6394
45.5,0.6388
45.51,0.63918
45.52,0.63998
45.53,0.639
45.54,0.63796
45.55,0.63825
45.56,0.6394
45.57,0.63939
45.58,0.63909
45.59,0.64058
45.6,0.64111
45.61,0.64073
45.62,0.6405
45.63,0.63937
45.64,0.63923
45.65,0.63957
45.66,0.63962
45.67,0.64072
45.68,0.63942
45.69,0.63838
45.7,0.64087
45.71,0.63915
45.72,0.63882
45.73,0.63964
45.74,0.63894
45.75,0.63978
45.76,0.6399
45.77,0.64045
45.78,0.63954
45.79,0.63795
45.8,0.68199
45.81,0.75834
45.82,0.81766
45.83,0.85256
45.84,0.86926
45.85,0.86138
45.86,0.82621
45.87,0.76497
45.88,0.68231
45.89,0.63927
45.9,0.63898
45.91,0.64082
45.92,0.64015
45.93,0.6396
45.94,0.63733
45.95,0.78311
45.96,1.0756
45.97,1.3657
45.98,1.6576
45.99,1.9471
46,2.2109
46.01,1.9476
46.02,1.6577
46.03,1.3679
46.04,1.0761
46.05,0.7836
46.06,0.61578
46.07,0.54082
46.08,0.4649
46.09,0.39781
46.1,0.46623
46.11,0.54152
46.12,0.61963
46.13,0.63945
46.14,0.6396
46.15,0.63938
46.16,0.64069
46.17,0.6385
46.18,0.68687
46.19,0.76241
46.2,0.8294
46.21,0.88952
46.22,0.9379
46.23,0.96958
46.24,0.98845
46.25,0.98749
46.26,0.97059
46.27,0.93733
46.28,0.88938
46.29,0.82997
46.3,0.76159
46.31,0.6864
46.32,0.63811
46.33,0.64074
46.34,0.63972
46.35,0.64067
46.36,0.63988
46.37,0.63978
46.38,0.63928
46.39,0.64151
46.4,0.64025
46.41,0.64196
46.42,0.66259
46.43,0.67422
46.44,0.67157
46.45,0.65607
46.46,0.63959
46.47,0.64008
46.48,0.6409
46.49,0.63823
46.5,0.63959
46.51,0.64005
46.52,0.63994
46.53,0.6402
46.54,0.64035
46.55,0.63993
46.56,0.64147
46.57,0.64004
46.58,0.63882
46.59,0.63874
46.6,0.63965
46.61,0.64115
46.62,0.63974
46.63,0.6382
46.64,0.63926
46.65,0.64168
46.66,0.63943
46.67,0.63933
46.68,0.64047
46.69,0.64101
46.7,0.63905
46.71,0.63993
46.72,0.63796
46.73,0.64009
46.74,0.63919
46.75,0.6412
46.76,0.63898
46.77,0.63936
46.78,0.63973
46.79,0.63909
46.8,0.68195
46.81,0.75847
46.82,0.81582
46.83,0.85267
46.84,0.87076
46.85,0.86141
46.86,0.82481
46.87,0.76474
46.88,0.68093
46.89,0.63856
46.9,0.63862
46.91,0.64103
46.92,0.63949
46.93,0.63881
46.94,0.63886
46.95,0.78384
46.96,1.0748
46.97,1.3659
46.98,1.6571
46.99,1.9473
47,2.211
47.01,1.9475
47.02,1.6567
47.03,1.3671
47.04,1.0739
47.05,0.78227
47.06,0.61645
47.07,0.54062
47.08,0.46605
47.09,0.39774
47.1,0.46714
47.11,0.54149
47.12,0.61766
47.13,0.63972
47.14,0.63934
47.15,0.64018
47.16,0.63887
47.17,0.6372
47.18,0.68731
47.19,0.75977
47.2,0.83023
47.21,0.888
47.22,0.93762
47.23,0.97098
47.24,0.98646
47.25,0.98745
47.26,0.97036
47.27,0.93618
47.28,0.89033
47.29,0.82992
47.3,0.76025
47.31,0.68567
47.32,0.6376
47.33,0.63912
47.34,0.63794
47.35,0.63975
47.36,0.63982
47.37,0.63976
47.38,0.63979
47.39,0.64
47.4,0.63997
47.41,0.64241
47.42,0.66315
47.43,0.6749
47.44,0.67096
47.45,0.65415
47.46,0.64106
47.47,0.64024
47.48,0.63857
47.49,0.63907
47.5,0.63973
47.51,0.63854
47.52,0.64071
47.53,0.64037
47.54,0.63995
47.55,0.63938
47.56,0.6397
47.57,0.63905
47.58,0.64028
47.59,0.63972
47.6,0.63913
47.61,0.63928
47.62,0.63993
47.63,0.64046
47.64,0.6401
47.65,0.63959
47.66,0.63897
47.67,0.63982
47.68,0.64014
47.69,0.64049
47.7,0.6398
47.71,0.63816
47.72,0.63972
47.73,0.63971
47.74,0.63842
47.75,0.64027
47.76,0.64081
47.77,0.63875
47.78,0.63936
47.79,0.63857
47.8,0.68257
47.81,0.7575
47.82,0.81767
47.83,0.85227
47.84,0.86885
47.85,0.86233
47.86,0.82555
47.87,0.76481
47.88,0.68107
47.89,0.63989
47.9,0.63857
47.91,0.63936
47.92,0.63847
47.93,0.64081
47.94,0.63779
47.95,0.78257
47.96,1.0765
47.97,1.367
47.98,1.6569
47.99,1.9488
48,2.2088
48.01,1.9482
48.02,1.6575
48.03,1.3664
48.04,1.0752
48.05,0.78349
48.06,0.61788
48.07,0.54193
48.08,0.46573
48.09,0.39844
48.1,0.46583
48.11,0.54218
48.12,0.6181
48.13,0.63922
48.14,0.64044
48.15,0.63954
48.16,0.6409
48.17,0.6391
48.18,0.6861
48.19,0.761
48.2,0.83019
48.21,0.88921
48.22,0.93645
48.23,0.97268
48.24,0.98871
48.25,0.98768
48.26,0.9692
48.27,0.93839
48.28,0.88936
48.29,0.82951
48.3,0.76055
48.31,0.6875
48.32,0.6384
48.33,0.63882
48.34,0.64024
48.35,0.63953
48.36,0.64017
48.37,0.63927
48.38,0.64024
48.39,0.64153
48.4,0.63853
48.41,0.64096
48.42,0.66171
48.43,0.67525
48.44,0.67129
48.45,0.6544
48.46,0.63969
48.47,0.64038
48.48,0.64077
48.49,0.64019
48.5,0.63862
48.51,0.64192
48.52,0.63981
48.53,0.63963
48.54,0.63954
48.55,0.64065
48.56,0.63988
48.57,0.63944
48.58,0.64035
48.59,0.64
48.6,0.63882
48.61,0.64025
48.62,0.64056
48.63,0.64016
48.64,0.63997
48.65,0.63899
48.66,0.63901
48.67,0.63993
48.68,0.63934
48.69,0.64105
48.7,0.63967
48.71,0.63937
48.72,0.63925
48.73,0.64025
48.74,0.63905
48.75,0.64091
48.76,0.64102
48.77,0.63868
48.78,0.6397
48.79,0.63901
48.8,0.68133
48.81,0.75754
48.82,0.8161
48.83,0.8528
48.84,0.86854
48.85,0.86108
48.86,0.82603
48.87,0.76503
48.88,0.68296
48.89,0.63955
48.9,0.63828
48.91,0.64112
48.92,0.63935
48.93,0.6398
48.94,0.63669
48.95,0.78331
48.96,1.0757
48.97,1.3674
48.98,1.6575
48.99,1.9475
49,2.2097
49.01,1.9466
49.02,1.6573
49.03,1.3659
49.04,1.0753
49.05,0.78396
49.06,0.61649
49.07,0.54376
49.08,0.46689
49.09,0.39981
49.1,0.46632
49.11,0.54109
49.12,0.61973
49.13,0.63797
49.14,0.63875
49.15,0.63921
49.16,0.64115
49.17,0.63864
49.18,0.68553
49.19,0.75937
49.2,0.83111
49.21,0.89128
49.22,0.93775
49.23,0.97038
49.24,0.9867
49.25,0.98679
49.26,0.97134
49.27,0.9372
49.28,0.88977
49.29,0.83084
49.3,0.76141
49.31,0.68658
49.32,0.63821
49.33,0.6384
49.34,0.64026
49.35,0.64026
49.36,0.64137
49.37,0.63939
49.38,0.63908
49.39,0.63964
49.4,0.64029
49.41,0.64262
49.42,0.66194
49.43,0.67428
49.44,0.67064
49.45,0.65506
49.46,0.63887
49.47,0.63909
49.48,0.64012
49.49,0.63959
49.5,0.63977
49.51,0.63959
49.52,0.64055
49.53,0.64015
49.54,0.64191
49.55,0.6395
49.56,0.63906
49.57,0.64009
49.58,0.63921
49.59,0.63955
49.6,0.63936
49.61,0.6405
49.62,0.63949
49.63,0.63838
49.64,0.64081
49.65,0.6385
49.66,0.63971
49.67,0.64018
49.68,0.6395
49.69,0.63965
49.7,0.6398
49.71,0.63935
49.72,0.63925
49.73,0.63939
49.74,0.63997
49.75,0.64077
49.76,0.6395
49.77,0.63867
49.78,0.63886
49.79,0.63966
49.8,0.6833
49.81,0.75673
49.82,0.81677
49.83,0.85152
49.84,0.86922
49.85,0.86142
49.86,0.82657
49.87,0.76578
49.88,0.68212
49.89,0.63971
49.9,0.63881
49.91,0.63927
49.92,0.64013
49.93,0.63919
49.94,0.63713
49.95,0.78334
49.96,1.0756
49.97,1.3663
49.98,1.6572
49.99,1.9462
50,2.2094
50.01,1.9479
50.02,1.6573
50.03,1.3659
50.04,1.0755
50.05,0.78237
50.06,0.61728
50.07,0.54087
50.08,0.46574
50.09,0.39786
50.1,0.46697
50.11,0.54167
50.12,0.61837
50.13,0.639
50.14,0.63933
50.15,0.63922
50.16,0.63853
50.17,0.63817
50.18,0.68642
50.19,0.76154
50.2,0.83127
50.21,0.88948
50.22,0.93644
50.23,0.97114
50.24,0.98775
50.25,0.98787
50.26,0.97125
50.27,0.93746
50.28,0.89026
50.29,0.83103
50.3,0.76135
50.31,0.68545
50.32,0.63792
50.33,0.63891
50.34,0.63969
50.35,0.6387
50.36,0.63938
50.37,0.64002
50.38,0.63863
50.39,0.63919
50.4,0.64077
50.41,0.6416
50.42,0.66214
50.43,0.67531
50.44,0.67147
50.45,0.65395
50.46,0.63927
50.47,0.63963
50.48,0.64022
50.49,0.63874
50.5,0.64043
50.51,0.63931
50.52,0.64063
50.53,0.64056
50.54,0.64117
50.55,0.64135
50.56,0.63887
50.57,0.63941
50.58,0.63973
50.59,0.63991
50.6,0.63938
50.61,0.63888
50.62,0.64016
50.63,0.64046
50.64,0.64022
50.65,0.63785
50.66,0.63983
50.67,0.64014
50.68,0.63955
50.69,0.63857
50.7,0.64028
50.71,0.64017
50.72,0.64053
50.73,0.63817
50.74,0.63774
50.75,0.63899
50.76,0.63999
50.77,0.63976
50.78,0.63854
50.79,0.63878
50.8,0.68302
50.81,0.75673
50.82,0.81798
50.83,0.85251
50.84,0.86819
50.85,0.86217
50.86,0.82695
50.87,0.76407
50.88,0.68261
50.89,0.63901
50.9,0.63965
50.91,0.6409
50.92,0.64107
50.93,0.63958
50.94,0.63665
50.95,0.78356
50.96,1.0775
50.97,1.3659
50.98,1.658
50.99,1.9483
51,2.2111
51.01,1.9483
51.02,1.6559
51.03,1.3669
51.04,1.075
51.05,0.78386
51.06,0.61743
51.07,0.541
51.08,0.46727
51.09,0.39779
51.1,0.46658
51.11,0.54204
51.12,0.61892
51.13,0.63784
51.14,0.63895
51.15,0.64019
51.16,0.63916
51.17,0.63822
51.18,0.68677
51.19,0.76092
51.2,0.83003
51.21,0.88872
51.22,0.93664
51.23,0.96973
51.24,0.98802
51.25,0.98792
51.26,0.97145
51.27,0.93791
51.28,0.89041
51.29,0.83013
51.3,0.76151
51.31,0.6884
51.32,0.63823
51.33,0.6385
51.34,0.63866
51.35,0.63915
51.36,0.6393
51.37,0.64114
51.38,0.63888
51.39,0.63976
51.4,0.63975
51.41,0.64328
51.42,0.66531
51.43,0.67364
51.44,0.67089
51.45,0.65387
51.46,0.64084
51.47,0.63963
51.48,0.63906
51.49,0.63982
51.5,0.63854
51.51,0.6386
51.52,0.63851
51.53,0.64107
51.54,0.64006
51.55,0.63946
51.56,0.64018
51.57,0.6394
51.58,0.64142
51.59,0.64068
51.6,0.63964
51.61,0.63859
51.62,0.64007
51.63,0.6381
51.64,0.63813
51.65,0.639
51.66,0.63957
51.67,0.63878
51.68,0.64082
51.69,0.64063
51.7,0.6402
51.71,0.63989
51.72,0.63854
51.73,0.63977
51.74,0.63952
51.75,0.64003
51.76,0.64014
51.77,0.63912
51.78,0.6394
51.79,0.63942
51.8,0.68367
51.81,0.75735
51.82,0.81708
51.83,0.85184
51.84,0.86838
51.85,0.86248
51.86,0.82456
51.87,0.76254
51.88,0.68317
51.89,0.63773
51.9,0.64023
51.91,0.63948
51.92,0.64019
51.93,0.63996
51.94,0.63846
51.95,0.78358
51.96,1.0759
51.97,1.3665
51.98,1.6564
51.99,1.947
52,2.2099
52.01,1.9462
52.02,1.657
52.03,1.3652
52.04,1.0766
52.05,0.78214
52.06,0.61603
52.07,0.5415
52.08,0.46491
52.09,0.39735
52.1,0.46612
52.11,0.54127
52.12,0.6189
52.13,0.63863
52.14,0.63947
52.15,0.6398
52.16,0.63925
52.17,0.63925
52.18,0.68579
52.19,0.7618
52.2,0.82982
52.21,0.89011
52.22,0.93776
52.23,0.96974
52.24,0.98939
52.25,0.9875
52.26,0.96991
52.27,0.93712
52.28,0.88933
52.29,0.83048
52.3,0.76218
52.31,0.68636
52.32,0.63792
52.33,0.63925
52.34,0.63924
52.35,0.63715
52.36,0.64081
52.37,0.6393
52.38,0.6398
52.39,0.6394
52.4,0.63905
52.41,0.64251
52.42,0.66211
52.43,0.67484
52.44,0.67222
52.45,0.65328
52.46,0.63955
52.47,0.63964
52.48,0.638
52.49,0.64022
52.5,0.64023
52.51,0.64004
52.52,0.6403
52.53,0.63902
52.54,0.63809
52.55,0.63923
52.56,0.64032
52.57,0.6409
52.58,0.63938
52.59,0.64066
52.6,0.64074
52.61,0.63871
52.62,0.64004
52.63,0.63999
52.64,0.64051
52.65,0.6395
52.66,0.63827
52.67,0.63927
52.68,0.63944
52.69,0.63885
52.7,0.64027
52.71,0.63976
52.72,0.63968
52.73,0.64082
52.74,0.63999
52.75,0.64
52.76,0.63987
52.77,0.64037
52.78,0.63988
52.79,0.63951
52.8,0.68208
52.81,0.75839
52.82,0.81569
52.83,0.85352
52.84,0.8695
52.85,0.86166
52.86,0.82652
52.87,0.76553
52.88,0.68122
52.89,0.63857
52.9,0.63956
52.91,0.64084
52.92,0.64066
52.93,0.63992
52.94,0.63861
52.95,0.78317
52.96,1.0744
52.97,1.3664
52.98,1.6567
52.99,1.9476
53,2.2098
53.01,1.9491
53.02,1.659
53.03,1.3669
53.04,1.0739
53.05,0.78271
53.06,0.61759
53.07,0.54151
53.08,0.46683
53.09,0.39928
53.1,0.46633
53.11,0.54102
53.12,0.61862
53.13,0.6394
53.14,0.63943
53.15,0.64043
53.16,0.63872
53.17,0.63877
53.18,0.68519
53.19,0.76141
53.2,0.83033
53.21,0.88891
53.22,0.9379
53.23,0.9712
53.24,0.9892
53.25,0.9886
53.26,0.97064
53.27,0.93739
53.28,0.88941
53.29,0.8304
53.3,0.76034
53.31,0.68765
53.32,0.63951
53.33,0.63976
53.34,0.64059
53.35,0.63852
53.36,0.64058
53.37,0.63881
53.38,0.64015
53.39,0.63839
53.4,0.63978
53.41,0.64259
53.42,0.66326
53.43,0.67247
53.44,0.67352
53.45,0.65359
53.46,0.63739
53.47,0.63989
53.48,0.63961
53.49,0.63902
53.5,0.64057
53.51,0.64113
53.52,0.63818
53.53,0.63828
53.54,0.64014
53.55,0.63938
53.56,0.6394
53.57,0.64001
53.58,0.64046
53.59,0.63979
53.6,0.64035
53.61,0.64158
53.62,0.63744
53.63,0.63865
53.64,0.64027
53.65,0.63895
53.66,0.63958
53.67,0.63976
53.68,0.63921
53.69,0.64035
53.7,0.6406
53.71,0.6405
53.72,0.64039
53.73,0.64115
53.74,0.63989
53.75,0.63975
53.76,0.6394
53.77,0.63933
53.78,0.63951
53.79,0.63965
53.8,0.68297
53.81,0.75793
53.82,0.8188
53.83,0.85209
53.84,0.86956
53.85,0.86224
53.86,0.82439
53.87,0.76554
53.88,0.68206
53.89,0.63939
53.9,0.64098
53.91,0.63938
53.92,0.64103
53.93,0.63874
53.94,0.63779
53.95,0.78273
53.96,1.0763
53.97,1.3661
53.98,1.6574
53.99,1.9474
54,2.2105
54.01,1.9478
54.02,1.6573
54.03,1.3656
54.04,1.0754
54.05,0.78293
54.06,0.61588
54.07,0.5404
54.08,0.46676
54.09,0.39839
54.1,0.46503
54.11,0.54173
54.12,0.61917
54.13,0.63905
54.14,0.63937
54.15,0.63978
54.16,0.64004
54.17,0.63741
54.18,0.6878
54.19,0.76294
54.2,0.83116
54.21,0.88915
54.22,0.93723
54.23,0.97078
54.24,0.98761
54.25,0.98718
54.26,0.97099
54.27,0.9382
54.28,0.89019
54.29,0.83052
54.3,0.76204
54.31,0.68542
54.32,0.63834
54.33,0.63908
54.34,0.64127
54.35,0.64089
54.36,0.63965
54.37,0.6392
54.38,0.64051
54.39,0.64064
54.4,0.64106
54.41,0.6423
54.42,0.66306
54.43,0.6733
54.44,0.67178
54.45,0.65635
54.46,0.63976
54.47,0.63844
54.48,0.63878
54.49,0.63928
54.5,0.64097
54.51,0.63898
54.52,0.63973
54.53,0.63948
54.54,0.63943
54.55,0.63943
54.56,0.64006
54.57,0.64088
54.58,0.63955
54.59,0.63916
54.6,0.63988
54.61,0.63979
54.62,0.63917
54.63,0.64018
54.64,0.6409
54.65,0.63945
54.66,0.63903
54.67,0.63782
54.68,0.64026
54.69,0.63931
54.7,0.64083
54.71,0.63983
54.72,0.63998
54.73,0.6397
54.74,0.63836
54.75,0.64046
54.76,0.63972
54.77,0.63913
54.78,0.63999
54.79,0.63778
54.8,0.6817
54.81,0.75625
54.82,0.81842
54.83,0.8519
54.84,0.86908
54.85,0.86097
54.86,0.82622
54.87,0.76581
54.88,0.68263
54.89,0.63847
54.9,0.64048
54.91,0.64093
54.92,0.63988
54.93,0.63792
54.94,0.63737
54.95,0.78442
54.96,1.0761
54.97,1.3662
54.98,1.6574
54.99,1.948
55,2.2102
55.01,1.9485
55.02,1.6575
55.03,1.3644
55.04,1.075
55.05,0.78122
55.06,0.61622
55.07,0.54233
55.08,0.46585
55.09,0.39773
55.1,0.46662
55.11,0.54193
55.12,0.61939
55.13,0.63804
55.14,0.64046
55.15,0.63809
55.16,0.63792
55.17,0.63895
55.18,0.68616
55.19,0.76276
55.2,0.83093
55.21,0.88927
55.22,0.93816
55.23,0.9699
55.24,0.98606
55.25,0.98801
55.26,0.96938
55.27,0.93872
55.28,0.88909
55.29,0.82995
55.3,0.76042
55.31,0.68727
55.32,0.63837
55.33,0.6396
55.34,0.64026
55.35,0.63928
55.36,0.64113
55.37,0.64019
55.38,0.63939
55.39,0.63882
55.4,0.63992
55.41,0.64135
55.42,0.66245
55.43,0.67419
55.44,0.67305
55.45,0.65305
55.46,0.64019
55.47,0.6399
55.48,0.64074
55.49,0.63961
55.5,0.6405
55.51,0.64014
55.52,0.6398
55.53,0.63975
55.54,0.63885
55.55,0.63969
55.56,0.63932
55.57,0.63956
55.58,0.64064
55.59,0.64094
55.6,0.64015
55.61,0.63928
55.62,0.64078
55.63,0.6397
55.64,0.63902
55.65,0.64091
55.66,0.64062
55.67,0.64048
55.68,0.64049
55.69,0.64032
55.7,0.63989
55.71,0.63981
55.72,0.63922
55.73,0.63966
55.74,0.6394
55.75,0.63999
55.76,0.63998
55.77,0.64004
55.78,0.63933
55.79,0.63956
55.8,0.68249
55.81,0.75798
55.82,0.81723
55.83,0.85281
55.84,0.8695
55.85,0.85995
55.86,0.82686
55.87,0.76509
55.88,0.68231
55.89,0.63909
55.9,0.64057
55.91,0.63974
55.92,0.63924
55.93,0.63993
55.94,0.63891
55.95,0.78348
55.96,1.0756
55.97,1.3686
55.98,1.6556
55.99,1.9476
56,2.209
56.01,1.946
56.02,1.6562
56.03,1.368
56.04,1.0743
56.05,0.7832
56.06,0.61651
56.07,0.54101
56.08,0.46709
56.09,0.3981
56.1,0.46633
56.11,0.54231
56.12,0.61974
56.13,0.64005
56.14,0.63898
56.15,0.63891
56.16,0.63944
56.17,0.63897
56.18,0.68576
56.19,0.76148
56.2,0.83013
56.21,0.88982
56.22,0.93851
56.23,0.97218
56.24,0.98843
56.25,0.98808
56.26,0.97083
56.27,0.93811
56.28,0.88906
56.29,0.83137
56.3,0.76109
56.31,0.68614
56.32,0.63926
56.33,0.63766
56.34,0.6389
56.35,0.63944
56.36,0.63857
56.37,0.64126
56.38,0.63978
56.39,0.64042
56.4,0.63945
56.41,0.64178
56.42,0.66315
56.43,0.67321
56.44,0.67276
56.45,0.65549
56.46,0.63946
56.47,0.63972
56.48,0.64086
56.49,0.63889
56.5,0.63847
56.51,0.63858
56.52,0.63878
56.53,0.64056
56.54,0.63845
56.55,0.63972
56.56,0.63881
56.57,0.63951
56.58,0.63913
56.59,0.63912
56.6,0.63908
56.61,0.63956
56.62,0.63796
56.63,0.6398
56.64,0.63893
56.65,0.64054
56.66,0.641
56.67,0.63891
56.68,0.64041
56.69,0.64051
56.7,0.63877
56.71,0.64001
56.72,0.63899
56.73,0.6411
56.74,0.63965
56.75,0.63965
56.76,0.63961
56.77,0.6412
56.78,0.63868
56.79,0.63815
56.8,0.68224
56.81,0.75824
56.82,0.81586
56.83,0.85184
56.84,0.86883
56.85,0.86161
56.86,0.8265
56.87,0.76439
56.88,0.6837
56.89,0.63895
56.9,0.64072
56.91,0.63819
56.92,0.63943
56.93,0.64042
56.94,0.6388
56.95,0.78429
56.96,1.0759
56.97,1.3682
56.98,1.6577
56.99,1.9461
57,2.2097
57.01,1.9462
57.02,1.6577
57.03,1.3668
57.04,1.0756
57.05,0.78152
57.06,0.61635
57.07,0.54051
57.08,0.46556
57.09,0.39765
57.1,0.46638
57.11,0.54246
57.12,0.61892
57.13,0.63872
57.14,0.63971
57.15,0.64055
57.16,0.63932
57.17,0.63974
57.18,0.68582
57.19,0.76234
57.2,0.8299
57.21,0.89019
57.22,0.93693
57.23,0.97001
57.24,0.98697
57.25,0.98633
57.26,0.96957
57.27,0.9376
57.28,0.89
57.29,0.8309
57.3,0.76149
57.31,0.68607
57.32,0.63853
57.33,0.63887
57.34,0.63873
57.35,0.63923
57.36,0.63893
57.37,0.63959
57.38,0.63921
57.39,0.63966
57.4,0.63861
57.41,0.6422
57.42,0.66124
57.43,0.67352
57.44,0.67167
57.45,0.65748
57.46,0.63798
57.47,0.63893
57.48,0.63848
57.49,0.63966
57.5,0.63951
57.51,0.64005
57.52,0.64001
57.53,0.64005
57.54,0.6391
57.55,0.63961
57.56,0.63891
57.57,0.6381
57.58,0.63855
57.59,0.64042
57.6,0.64017
57.61,0.64076
57.62,0.63927
57.63,0.63923
57.64,0.63907
57.65,0.64051
57.66,0.63914
57.67,0.63951
57.68,0.63986
57.69,0.63939
57.7,0.6409
57.71,0.64044
57.72,0.63947
57.73,0.64016
57.74,0.64043
57.75,0.6398
57.76,0.63889
57.77,0.64075
57.78,0.64037
57.79,0.63861
57.8,0.68108
57.81,0.75676
57.82,0.81717
57.83,0.85332
57.84,0.86851
57.85,0.86165
57.86,0.82538
57.87,0.76444
57.88,0.68146
57.89,0.63915
57.9,0.63909
57.91,0.63952
57.92,0.6403
57.93,0.63945
57.94,0.63823
57.95,0.78459
57.96,1.0748
57.97,1.3659
57.98,1.6582
57.99,1.9462
58,2.2113
58.01,1.9469
58.02,1.6568
58.03,1.3665
58.04,1.0749
58.05,0.78263
58.06,0.61488
58.07,0.54152
58.08,0.46668
58.09,0.39863
58.1,0.46637
58.11,0.54049
58.12,0.61789
58.13,0.63754
58.14,0.64034
58.15,0.63925
58.16,0.64005
58.17,0.63835
58.18,0.68673
58.19,0.76038
58.2,0.82957
58.21,0.89041
58.22,0.93663
58.23,0.97055
58.24,0.98751
58.25,0.9885
58.26,0.9707
58.27,0.93623
58.28,0.88936
58.29,0.83006
58.3,0.76194
58.31,0.68625
58.32,0.63949
58.33,0.63913
58.34,0.63882
58.35,0.63973
58.36,0.63882
58.37,0.63937
58.38,0.64101
58.39,0.64083
58.4,0.64148
58.41,0.64208
58.42,0.6608
58.43,0.67371
58.44,0.67
58.45,0.65503
58.46,0.6394
58.47,0.63761
58.48,0.63979
58.49,0.63933
58.5,0.63861
58.51,0.63851
58.52,0.63972
58.53,0.63959
58.54,0.64146
58.55,0.63931
58.56,0.63921
58.57,0.64002
58.58,0.63755
58.59,0.64047
58.6,0.63929
58.61,0.63829
58.62,0.63926
58.63,0.64015
58.64,0.63985
58.65,0.63868
58.66,0.64045
58.67,0.63999
58.68,0.63979
58.69,0.63991
58.7,0.6411
58.71,0.64029
58.72,0.63851
58.73,0.64014
58.74,0.6389
58.75,0.64002
58.76,0.63944
58.77,0.63969
58.78,0.63984
58.79,0.6378
58.8,0.68377
58.81,0.75699
58.82,0.8162
58.83,0.85231
58.84,0.86758
58.85,0.86162
58.86,0.82532
58.87,0.76421
58.88,0.68247
58.89,0.63961
58.9,0.63919
58.91,0.63881
58.92,0.63902
58.93,0.6402
58.94,0.63886
58.95,0.78279
58.96,1.0764
58.97,1.3674
58.98,1.6576
58.99,1.947
59,2.2104
59.01,1.9491
59.02,1.6596
59.03,1.3661
59.04,1.0756
59.05,0.78281
59.06,0.61696
59.07,0.54
59.08,0.46589
59.09,0.39733
59.1,0.46666
59.11,0.54109
59.12,0.61834
59.13,0.63994
59.14,0.63984
59.15,0.63735
59.16,0.6397
59.17,0.63852
59.18,0.68698
59.19,0.76
59.2,0.83074
59.21,0.89125
59.22,0.93716
59.23,0.97107
59.24,0.98575
59.25,0.98699
59.26,0.97145
59.27,0.9379
59.28,0.89063
59.29,0.83026
59.3,0.76234
59.31,0.68506
59.32,0.6399
59.33,0.63884
59.34,0.64003
59.35,0.63887
59.36,0.63941
59.37,0.6396
59.38,0.64027
59.39,0.641
59.4,0.63922
59.41,0.64134
59.42,0.66437
59.43,0.67453
59.44,0.67187
59.45,0.65518
59.46,0.64015
59.47,0.63985
59.48,0.64062
59.49,0.64014
59.5,0.64076
59.51,0.64023
59.52,0.64005
59.53,0.64017
59.54,0.64019
59.55,0.63996
59.56,0.64101
59.57,0.64002
59.58,0.64022
59.59,0.64036
59.6,0.64089
59.61,0.63857
59.62,0.63862
59.63,0.63969
59.64,0.63995
59.65,0.64014
59.66,0.63968
59.67,0.6412
59.68,0.6396
59.69,0.63965
59.7,0.63954
59.71,0.64158
59.72,0.64057
59.73,0.63922
59.74,0.63975
59.75,0.64026
59.76,0.64025
59.77,0.63789
59.78,0.63961
59.79,0.63922
59.8,0.68227
59.81,0.75819
59.82,0.81675
59.83,0.85059
59.84,0.86937
59.85,0.86
59.86,0.82597
59.87,0.76486
59.88,0.68368
59.89,0.63811
59.9,0.6396
59.91,0.63767
59.92,0.64015
59.93,0.6404
59.94,0.63809
59.95,0.78265
59.96,1.0748
59.97,1.3667
59.98,1.6569
59.99,1.95
60,2.2105
