0.01,1.9475
0.02,1.6574
0.03,1.3666
0.04,1.0755
0.05,0.78289
0.06,0.61668
0.07,0.54153
0.08,0.46602
0.09,0.39765
0.1,0.4661
0.11,0.54181
0.12,0.61838
0.13,0.63914
0.14,0.63939
0.15,0.63943
0.16,0.63933
0.17,0.63858
0.18,0.68621
0.19,0.76119
0.2,0.83024
0.21,0.89003
0.22,0.93763
0.23,0.97071
0.24,0.98767
0.25,0.98767
0.26,0.97072
0.27,0.93764
0.28,0.89005
0.29,0.83028
0.3,0.76124
0.31,0.68627
0.32,0.63866
0.33,0.63944
0.34,0.63958
0.35,0.63964
0.36,0.63968
0.37,0.6397
0.38,0.63973
0.39,0.63976
0.4,0.63985
0.41,0.64196
0.42,0.66258
0.43,0.67404
0.44,0.67109
0.45,0.65503
0.46,0.63927
0.47,0.63955
0.48,0.63961
0.49,0.63964
0.5,0.63965
0.51,0.63966
0.52,0.63967
0.53,0.63967
0.54,0.63968
0.55,0.63968
0.56,0.63968
0.57,0.63969
0.58,0.63969
0.59,0.63969
0.6,0.63969
0.61,0.63969
0.62,0.63969
0.63,0.63969
0.64,0.63969
0.65,0.63969
0.66,0.63969
0.67,0.63969
0.68,0.63969
0.69,0.63969
0.7,0.63969
0.71,0.63969
0.72,0.63969
0.73,0.63969
0.74,0.63969
0.75,0.63968
0.76,0.63967
0.77,0.63966
0.78,0.6396
0.79,0.63917
0.8,0.68248
0.81,0.75769
0.82,0.81668
0.83,0.85238
0.84,0.86922
0.85,0.8617
0.86,0.82581
0.87,0.76473
0.88,0.68262
0.89,0.63918
0.9,0.63958
0.91,0.6396
0.92,0.63955
0.93,0.63937
0.94,0.63793
0.95,0.78337
0.96,1.0757
0.97,1.3667
0.98,1.6574
0.99,1.9475
1,2.2101
1.01,1.9475
1.02,1.6574
1.03,1.3666
1.04,1.0755
1.05,0.78289
1.06,0.61668
1.07,0.54153
1.08,0.46602
1.09,0.39765
1.1,0.4661
1.11,0.54181
1.12,0.61838
1.13,0.63914
1.14,0.63939
1.15,0.63943
1.16,0.63933
1.17,0.63858
1.18,0.68621
1.19,0.76119
1.2,0.83024
1.21,0.89003
1.22,0.93763
1.23,0.97071
1.24,0.98767
1.25,0.98767
1.26,0.97072
1.27,0.93764
1.28,0.89005
1.29,0.83028
1.3,0.76124
1.31,0.68627
1.32,0.63866
1.33,0.63944
1.34,0.63958
1.35,0.63964
1.36,0.63968
1.37,0.6397
1.38,0.63973
1.39,0.63976
1.4,0.63985
1.41,0.64196
1.42,0.66258
1.43,0.67404
1.44,0.67109
1.45,0.65503
1.46,0.63927
1.47,0.63955
1.48,0.63961
1.49,0.63964
1.5,0.63965
1.51,0.63966
1.52,0.63967
1.53,0.63967
1.54,0.63968
1.55,0.63968
1.56,0.63968
1.57,0.63969
1.58,0.63969
1.59,0.63969
1.6,0.63969
1.61,0.63969
1.62,0.63969
1.63,0.63969
1.64,0.63969
1.65,0.63969
1.66,0.63969
1.67,0.63969
1.68,0.63969
1.69,0.63969
1.7,0.63969
1.71,0.63969
1.72,0.63969
1.73,0.63969
1.74,0.63969
1.75,0.63968
1.76,0.63967
1.77,0.63966
1.78,0.6396
1.79,0.63917
1.8,0.68248
1.81,0.75769
1.82,0.81668
1.83,0.85238
1.84,0.86922
1.85,0.8617
1.86,0.82581
1.87,0.76473
1.88,0.68262
1.89,0.63918
1.9,0.63958
1.91,0.6396
1.92,0.63955
1.93,0.63937
1.94,0.63793
1.95,0.78337
1.96,1.0757
1.97,1.3667
1.98,1.6574
1.99,1.9475
2,2.2101
2.01,1.9475
2.02,1.6574
2.03,1.3666
2.04,1.0755
2.05,0.78289
2.06,0.61668
2.07,0.54153
2.08,0.46602
2.09,0.39765
2.1,0.4661
2.11,0.54181
2.12,0.61838
2.13,0.63914
2.14,0.63939
2.15,0.63943
2.16,0.63933
2.17,0.63858
2.18,0.68621
2.19,0.76119
2.2,0.83024
2.21,0.89003
2.22,0.93763
2.23,0.97071
2.24,0.98767
2.25,0.98767
2.26,0.97072
2.27,0.93764
2.28,0.89005
2.29,0.83028
2.3,0.76124
2.31,0.68627
2.32,0.63866
2.33,0.63944
2.34,0.63958
2.35,0.63964
2.36,0.63968
2.37,0.6397
2.38,0.63973
2.39,0.63976
2.4,0.63985
2.41,0.64196
2.42,0.66258
2.43,0.67404
2.44,0.67109
2.45,0.65503
2.46,0.63927
2.47,0.63955
2.48,0.63961
2.49,0.63964
2.5,0.63965
2.51,0.63966
2.52,0.63967
2.53,0.63967
2.54,0.63968
2.55,0.63968
2.56,0.63968
2.57,0.63969
2.58,0.63969
2.59,0.63969
2.6,0.63969
2.61,0.63969
2.62,0.63969
2.63,0.63969
2.64,0.63969
2.65,0.63969
2.66,0.63969
2.67,0.63969
2.68,0.63969
2.69,0.63969
2.7,0.63969
2.71,0.63969
2.72,0.63969
2.73,0.63969
2.74,0.63969
2.75,0.63968
2.76,0.63967
2.77,0.63966
2.78,0.6396
2.79,0.63917
2.8,0.68248
2.81,0.75769
2.82,0.81668
2.83,0.85238
2.84,0.86922
2.85,0.8617
2.86,0.82581
2.87,0.76473
2.88,0.68262
2.89,0.63918
2.9,0.63958
2.91,0.6396
2.92,0.63955
2.93,0.63937
2.94,0.63793
2.95,0.78337
2.96,1.0757
2.97,1.3667
2.98,1.6574
2.99,1.9475
3,2.2101
3.01,1.9475
3.02,1.6574
3.03,1.3666
3.04,1.0755
3.05,0.78289
3.06,0.61668
3.07,0.54153
3.08,0.46602
3.09,0.39765
3.1,0.4661
3.11,0.54181
3.12,0.61838
3.13,0.63914
3.14,0.63939
3.15,0.63943
3.16,0.63933
3.17,0.63858
3.18,0.68621
3.19,0.76119
3.2,0.83024
3.21,0.89003
3.22,0.93763
3.23,0.97071
3.24,0.98767
3.25,0.98767
3.26,0.97072
3.27,0.93764
3.28,0.89005
3.29,0.83028
3.3,0.76124
3.31,0.68627
3.32,0.63866
3.33,0.63944
3.34,0.63958
3.35,0.63964
3.36,0.63968
3.37,0.6397
3.38,0.63973
3.39,0.63976
3.4,0.63985
3.41,0.64196
3.42,0.66258
3.43,0.67404
3.44,0.67109
3.45,0.65503
3.46,0.63927
3.47,0.63955
3.48,0.63961
3.49,0.63964
3.5,0.63965
3.51,0.63966
3.52,0.63967
3.53,0.63967
3.54,0.63968
3.55,0.63968
3.56,0.63968
3.57,0.63969
3.58,0.63969
3.59,0.63969
3.6,0.63969
3.61,0.63969
3.62,0.63969
3.63,0.63969
3.64,0.63969
3.65,0.63969
3.66,0.63969
3.67,0.63969
3.68,0.63969
3.69,0.63969
3.7,0.63969
3.71,0.63969
3.72,0.63969
3.73,0.63969
3.74,0.63969
3.75,0.63968
3.76,0.63967
3.77,0.63966
3.78,0.6396
3.79,0.63917
3.8,0.68248
3.81,0.75769
3.82,0.81668
3.83,0.85238
3.84,0.86922
3.85,0.8617
3.86,0.82581
3.87,0.76473
3.88,0.68262
3.89,0.63918
3.9,0.63958
3.91,0.6396
3.92,0.63955
3.93,0.63937
3.94,0.63793
3.95,0.78337
3.96,1.0757
3.97,1.3667
3.98,1.6574
3.99,1.9475
4,2.2101
4.01,1.9475
4.02,1.6574
4.03,1.3666
4.04,1.0755
4.05,0.78289
4.06,0.61668
4.07,0.54153
4.08,0.46602
4.09,0.39765
4.1,0.4661
4.11,0.54181
4.12,0.61838
4.13,0.63914
4.14,0.63939
4.15,0.63943
4.16,0.63933
4.17,0.63858
4.18,0.68621
4.19,0.76119
4.2,0.83024
4.21,0.89003
4.22,0.93763
4.23,0.97071
4.24,0.98767
4.25,0.98767
4.26,0.97072
4.27,0.93764
4.28,0.89005
4.29,0.83028
4.3,0.76124
4.31,0.68627
4.32,0.63866
4.33,0.63944
4.34,0.63958
4.35,0.63964
4.36,0.63968
4.37,0.6397
4.38,0.63973
4.39,0.63976
4.4,0.63985
4.41,0.64196
4.42,0.66258
4.43,0.67404
4.44,0.67109
4.45,0.65503
4.46,0.63927
4.47,0.63955
4.48,0.63961
4.49,0.63964
4.5,0.63965
4.51,0.63966
4.52,0.63967
4.53,0.63967
4.54,0.63968
4.55,0.63968
4.56,0.63968
4.57,0.63969
4.58,0.63969
4.59,0.63969
4.6,0.63969
4.61,0.63969
4.62,0.63969
4.63,0.63969
4.64,0.63969
4.65,0.63969
4.66,0.63969
4.67,0.63969
4.68,0.63969
4.69,0.63969
4.7,0.63969
4.71,0.63969
4.72,0.63969
4.73,0.63969
4.74,0.63969
4.75,0.63968
4.76,0.63967
4.77,0.63966
4.78,0.6396
4.79,0.63917
4.8,0.68248
4.81,0.75769
4.82,0.81668
4.83,0.85238
4.84,0.86922
4.85,0.8617
4.86,0.82581
4.87,0.76473
4.88,0.68262
4.89,0.63918
4.9,0.63958
4.91,0.6396
4.92,0.63955
4.93,0.63937
4.94,0.63793
4.95,0.78337
4.96,1.0757
4.97,1.3667
4.98,1.6574
4.99,1.9475
5,2.2101
5.01,1.9475
5.02,1.6574
5.03,1.3666
5.04,1.0755
5.05,0.78289
5.06,0.61668
5.07,0.54153
5.08,0.46602
5.09,0.39765
5.1,0.4661
5.11,0.54181
5.12,0.61838
5.13,0.63914
5.14,0.63939
5.15,0.63943
5.16,0.63933
5.17,0.63858
5.18,0.68621
5.19,0.76119
5.2,0.83024
5.21,0.89003
5.22,0.93763
5.23,0.97071
5.24,0.98767
5.25,0.98767
5.26,0.97072
5.27,0.93764
5.28,0.89005
5.29,0.83028
5.3,0.76124
5.31,0.68627
5.32,0.63866
5.33,0.63944
5.34,0.63958
5.35,0.63964
5.36,0.63968
5.37,0.6397
5.38,0.63973
5.39,0.63976
5.4,0.63985
5.41,0.64196
5.42,0.66258
5.43,0.67404
5.44,0.67109
5.45,0.65503
5.46,0.63927
5.47,0.63955
5.48,0.63961
5.49,0.63964
5.5,0.63965
5.51,0.63966
5.52,0.63967
5.53,0.63967
5.54,0.63968
5.55,0.63968
5.56,0.63968
5.57,0.63969
5.58,0.63969
5.59,0.63969
5.6,0.63969
5.61,0.63969
5.62,0.63969
5.63,0.63969
5.64,0.63969
5.65,0.63969
5.66,0.63969
5.67,0.63969
5.68,0.63969
5.69,0.63969
5.7,0.63969
5.71,0.63969
5.72,0.63969
5.73,0.63969
5.74,0.63969
5.75,0.63968
5.76,0.63967
5.77,0.63966
5.78,0.6396
5.79,0.63917
5.8,0.68248
5.81,0.75769
5.82,0.81668
5.83,0.85238
5.84,0.86922
5.85,0.8617
5.86,0.82581
5.87,0.76473
5.88,0.68262
5.89,0.63918
5.9,0.63958
5.91,0.6396
5.92,0.63955
5.93,0.63937
5.94,0.63793
5.95,0.78337
5.96,1.0757
5.97,1.3667
5.98,1.6574
5.99,1.9475
6,2.2101
6.01,1.9475
6.02,1.6574
6.03,1.3666
6.04,1.0755
6.05,0.78289
6.06,0.61668
6.07,0.54153
6.08,0.46602
6.09,0.39765
6.1,0.4661
6.11,0.54181
6.12,0.61838
6.13,0.63914
6.14,0.63939
6.15,0.63943
6.16,0.63933
6.17,0.63858
6.18,0.68621
6.19,0.76119
6.2,0.83024
6.21,0.89003
6.22,0.93763
6.23,0.97071
6.24,0.98767
6.25,0.98767
6.26,0.97072
6.27,0.93764
6.28,0.89005
6.29,0.83028
6.3,0.76124
6.31,0.68627
6.32,0.63866
6.33,0.63944
6.34,0.63958
6.35,0.63964
6.36,0.63968
6.37,0.6397
6.38,0.63973
6.39,0.63976
6.4,0.63985
6.41,0.64196
6.42,0.66258
6.43,0.67404
6.44,0.67109
6.45,0.65503
6.46,0.63927
6.47,0.63955
6.48,0.63961
6.49,0.63964
6.5,0.63965
6.51,0.63966
6.52,0.63967
6.53,0.63967
6.54,0.63968
6.55,0.63968
6.56,0.63968
6.57,0.63969
6.58,0.63969
6.59,0.63969
6.6,0.63969
6.61,0.63969
6.62,0.63969
6.63,0.63969
6.64,0.63969
6.65,0.63969
6.66,0.63969
6.67,0.63969
6.68,0.63969
6.69,0.63969
6.7,0.63969
6.71,0.63969
6.72,0.63969
6.73,0.63969
6.74,0.63969
6.75,0.63968
6.76,0.63967
6.77,0.63966
6.78,0.6396
6.79,0.63917
6.8,0.68248
6.81,0.75769
6.82,0.81668
6.83,0.85238
6.84,0.86922
6.85,0.8617
6.86,0.82581
6.87,0.76473
6.88,0.68262
6.89,0.63918
6.9,0.63958
6.91,0.6396
6.92,0.63955
6.93,0.63937
6.94,0.63793
6.95,0.78337
6.96,1.0757
6.97,1.3667
6.98,1.6574
6.99,1.9475
7,2.2101
7.01,1.9475
7.02,1.6574
7.03,1.3666
7.04,1.0755
7.05,0.78289
7.06,0.61668
7.07,0.54153
7.08,0.46602
7.09,0.39765
7.1,0.4661
7.11,0.54181
7.12,0.61838
7.13,0.63914
7.14,0.63939
7.15,0.63943
7.16,0.63933
7.17,0.63858
7.18,0.68621
7.19,0.76119
7.2,0.83024
7.21,0.89003
7.22,0.93763
7.23,0.97071
7.24,0.98767
7.25,0.98767
7.26,0.97072
7.27,0.93764
7.28,0.89005
7.29,0.83028
7.3,0.76124
7.31,0.68627
7.32,0.63866
7.33,0.63944
7.34,0.63958
7.35,0.63964
7.36,0.63968
7.37,0.6397
7.38,0.63973
7.39,0.63976
7.4,0.63985
7.41,0.64196
7.42,0.66258
7.43,0.67404
7.44,0.67109
7.45,0.65503
7.46,0.63927
7.47,0.63955
7.48,0.63961
7.49,0.63964
7.5,0.63965
7.51,0.63966
7.52,0.63967
7.53,0.63967
7.54,0.63968
7.55,0.63968
7.56,0.63968
7.57,0.63969
7.58,0.63969
7.59,0.63969
7.6,0.63969
7.61,0.63969
7.62,0.63969
7.63,0.63969
7.64,0.63969
7.65,0.63969
7.66,0.63969
7.67,0.63969
7.68,0.63969
7.69,0.63969
7.7,0.63969
7.71,0.63969
7.72,0.63969
7.73,0.63969
7.74,0.63969
7.75,0.63968
7.76,0.63967
7.77,0.63966
7.78,0.6396
7.79,0.63917
7.8,0.68248
7.81,0.75769
7.82,0.81668
7.83,0.85238
7.84,0.86922
7.85,0.8617
7.86,0.82581
7.87,0.76473
7.88,0.68262
7.89,0.63918
7.9,0.63958
7.91,0.6396
7.92,0.63955
7.93,0.63937
7.94,0.63793
7.95,0.78337
7.96,1.0757
7.97,1.3667
7.98,1.6574
7.99,1.9475
8,2.2101
8.01,1.9475
8.02,1.6574
8.03,1.3666
8.04,1.0755
8.05,0.78289
8.06,0.61668
8.07,0.54153
8.08,0.46602
8.09,0.39765
8.1,0.4661
8.11,0.54181
8.12,0.61838
8.13,0.63914
8.14,0.63939
8.15,0.63943
8.16,0.63933
8.17,0.63858
8.18,0.68621
8.19,0.76119
8.2,0.83024
8.21,0.89003
8.22,0.93763
8.23,0.97071
8.24,0.98767
8.25,0.98767
8.26,0.97072
8.27,0.93764
8.28,0.89005
8.29,0.83028
8.3,0.76124
8.31,0.68627
8.32,0.63866
8.33,0.63944
8.34,0.63958
8.35,0.63964
8.36,0.63968
8.37,0.6397
8.38,0.63973
8.39,0.63976
8.4,0.63985
8.41,0.64196
8.42,0.66258
8.43,0.67404
8.44,0.67109
8.45,0.65503
8.46,0.63927
8.47,0.63955
8.48,0.63961
8.49,0.63964
8.5,0.63965
8.51,0.63966
8.52,0.63967
8.53,0.63967
8.54,0.63968
8.55,0.63968
8.56,0.63968
8.57,0.63969
8.58,0.63969
8.59,0.63969
8.6,0.63969
8.61,0.63969
8.62,0.63969
8.63,0.63969
8.64,0.63969
8.65,0.63969
8.66,0.63969
8.67,0.63969
8.68,0.63969
8.69,0.63969
8.7,0.63969
8.71,0.63969
8.72,0.63969
8.73,0.63969
8.74,0.63969
8.75,0.63968
8.76,0.63967
8.77,0.63966
8.78,0.6396
8.79,0.63917
8.8,0.68248
8.81,0.75769
8.82,0.81668
8.83,0.85238
8.84,0.86922
8.85,0.8617
8.86,0.82581
8.87,0.76473
8.88,0.68262
8.89,0.63918
8.9,0.63958
8.91,0.6396
8.92,0.63955
8.93,0.63937
8.94,0.63793
8.95,0.78337
8.96,1.0757
8.97,1.3667
8.98,1.6574
8.99,1.9475
9,2.2101
9.01,1.9475
9.02,1.6574
9.03,1.3666
9.04,1.0755
9.05,0.78289
9.06,0.61668
9.07,0.54153
9.08,0.46602
9.09,0.39765
9.1,0.4661
9.11,0.54181
9.12,0.61838
9.13,0.63914
9.14,0.63939
9.15,0.63943
9.16,0.63933
9.17,0.63858
9.18,0.68621
9.19,0.76119
9.2,0.83024
9.21,0.89003
9.22,0.93763
9.23,0.97071
9.24,0.98767
9.25,0.98767
9.26,0.97072
9.27,0.93764
9.28,0.89005
9.29,0.83028
9.3,0.76124
9.31,0.68627
9.32,0.63866
9.33,0.63944
9.34,0.63958
9.35,0.63964
9.36,0.63968
9.37,0.6397
9.38,0.63973
9.39,0.63976
9.4,0.63985
9.41,0.64196
9.42,0.66258
9.43,0.67404
9.44,0.67109
9.45,0.65503
9.46,0.63927
9.47,0.63955
9.48,0.63961
9.49,0.63964
9.5,0.63965
9.51,0.63966
9.52,0.63967
9.53,0.63967
9.54,0.63968
9.55,0.63968
9.56,0.63968
9.57,0.63969
9.58,0.63969
9.59,0.63969
9.6,0.63969
9.61,0.63969
9.62,0.63969
9.63,0.63969
9.64,0.63969
9.65,0.63969
9.66,0.63969
9.67,0.63969
9.68,0.63969
9.69,0.63969
9.7,0.63969
9.71,0.63969
9.72,0.63969
9.73,0.63969
9.74,0.63969
9.75,0.63968
9.76,0.63967
9.77,0.63966
9.78,0.6396
9.79,0.63917
9.8,0.68248
9.81,0.75769
9.82,0.81668
9.83,0.85238
9.84,0.86922
9.85,0.8617
9.86,0.82581
9.87,0.76473
9.88,0.68262
9.89,0.63918
9.9,0.63958
9.91,0.6396
9.92,0.63955
9.93,0.63937
9.94,0.63793
9.95,0.78337
9.96,1.0757
9.97,1.3667
9.98,1.6574
9.99,1.9475
10,2.2101
10.01,1.9475
10.02,1.6574
10.03,1.3666
10.04,1.0755
10.05,0.78289
10.06,0.61668
10.07,0.54153
10.08,0.46602
10.09,0.39765
10.1,0.4661
10.11,0.54181
10.12,0.61838
10.13,0.63914
10.14,0.63939
10.15,0.63943
10.16,0.63933
10.17,0.63858
10.18,0.68621
10.19,0.76119
10.2,0.83024
10.21,0.89003
10.22,0.93763
10.23,0.97071
10.24,0.98767
10.25,0.98767
10.26,0.97072
10.27,0.93764
10.28,0.89005
10.29,0.83028
10.3,0.76124
10.31,0.68627
10.32,0.63866
10.33,0.63944
10.34,0.63958
10.35,0.63964
10.36,0.63968
10.37,0.6397
10.38,0.63973
10.39,0.63976
10.4,0.63985
10.41,0.64196
10.42,0.66258
10.43,0.67404
10.44,0.67109
10.45,0.65503
10.46,0.63927
10.47,0.63955
10.48,0.63961
10.49,0.63964
10.5,0.63965
10.51,0.63966
10.52,0.63967
10.53,0.63967
10.54,0.63968
10.55,0.63968
10.56,0.63968
10.57,0.63969
10.58,0.63969
10.59,0.63969
10.6,0.63969
10.61,0.63969
10.62,0.63969
10.63,0.63969
10.64,0.63969
10.65,0.63969
10.66,0.63969
10.67,0.63969
10.68,0.63969
10.69,0.63969
10.7,0.63969
10.71,0.63969
10.72,0.63969
10.73,0.63969
10.74,0.63969
10.75,0.63968
10.76,0.63967
10.77,0.63966
10.78,0.6396
10.79,0.63917
10.8,0.68248
10.81,0.75769
10.82,0.81668
10.83,0.85238
10.84,0.86922
10.85,0.8617
10.86,0.82581
10.87,0.76473
10.88,0.68262
10.89,0.63918
10.9,0.63958
10.91,0.6396
10.92,0.63955
10.93,0.63937
10.94,0.63793
10.95,0.78337
10.96,1.0757
10.97,1.3667
10.98,1.6574
10.99,1.9475
11,2.2101
11.01,1.9475
11.02,1.6574
11.03,1.3666
11.04,1.0755
11.05,0.78289
11.06,0.61668
11.07,0.54153
11.08,0.46602
11.09,0.39765
11.1,0.4661
11.11,0.54181
11.12,0.61838
11.13,0.63914
11.14,0.63939
11.15,0.63943
11.16,0.63933
11.17,0.63858
11.18,0.68621
11.19,0.76119
11.2,0.83024
11.21,0.89003
11.22,0.93763
11.23,0.97071
11.24,0.98767
11.25,0.98767
11.26,0.97072
11.27,0.93764
11.28,0.89005
11.29,0.83028
11.3,0.76124
11.31,0.68627
11.32,0.63866
11.33,0.63944
11.34,0.63958
11.35,0.63964
11.36,0.63968
11.37,0.6397
11.38,0.63973
11.39,0.63976
11.4,0.63985
11.41,0.64196
11.42,0.66258
11.43,0.67404
11.44,0.67109
11.45,0.65503
11.46,0.63927
11.47,0.63955
11.48,0.63961
11.49,0.63964
11.5,0.63965
11.51,0.63966
11.52,0.63967
11.53,0.63967
11.54,0.63968
11.55,0.63968
11.56,0.63968
11.57,0.63969
11.58,0.63969
11.59,0.63969
11.6,0.63969
11.61,0.63969
11.62,0.63969
11.63,0.63969
11.64,0.63969
11.65,0.63969
11.66,0.63969
11.67,0.63969
11.68,0.63969
11.69,0.63969
11.7,0.63969
11.71,0.63969
11.72,0.63969
11.73,0.63969
11.74,0.63969
11.75,0.63968
11.76,0.63967
11.77,0.63966
11.78,0.6396
11.79,0.63917
11.8,0.68248
11.81,0.75769
11.82,0.81668
11.83,0.85238
11.84,0.86922
11.85,0.8617
11.86,0.82581
11.87,0.76473
11.88,0.68262
11.89,0.63918
11.9,0.63958
11.91,0.6396
11.92,0.63955
11.93,0.63937
11.94,0.63793
11.95,0.78337
11.96,1.0757
11.97,1.3667
11.98,1.6574
11.99,1.9475
12,2.2101
12.01,1.9475
12.02,1.6574
12.03,1.3666
12.04,1.0755
12.05,0.78289
12.06,0.61668
12.07,0.54153
12.08,0.46602
12.09,0.39765
12.1,0.4661
12.11,0.54181
12.12,0.61838
12.13,0.63914
12.14,0.63939
12.15,0.63943
12.16,0.63933
12.17,0.63858
12.18,0.68621
12.19,0.76119
12.2,0.83024
12.21,0.89003
12.22,0.93763
12.23,0.97071
12.24,0.98767
12.25,0.98767
12.26,0.97072
12.27,0.93764
12.28,0.89005
12.29,0.83028
12.3,0.76124
12.31,0.68627
12.32,0.63866
12.33,0.63944
12.34,0.63958
12.35,0.63964
12.36,0.63968
12.37,0.6397
12.38,0.63973
12.39,0.63976
12.4,0.63985
12.41,0.64196
12.42,0.66258
12.43,0.67404
12.44,0.67109
12.45,0.65503
12.46,0.63927
12.47,0.63955
12.48,0.63961
12.49,0.63964
12.5,0.63965
12.51,0.63966
12.52,0.63967
12.53,0.63967
12.54,0.63968
12.55,0.63968
12.56,0.63968
12.57,0.63969
12.58,0.63969
12.59,0.63969
12.6,0.63969
12.61,0.63969
12.62,0.63969
12.63,0.63969
12.64,0.63969
12.65,0.63969
12.66,0.63969
12.67,0.63969
12.68,0.63969
12.69,0.63969
12.7,0.63969
12.71,0.63969
12.72,0.63969
12.73,0.63969
12.74,0.63969
12.75,0.63968
12.76,0.63967
12.77,0.63966
12.78,0.6396
12.79,0.63917
12.8,0.68248
12.81,0.75769
12.82,0.81668
12.83,0.85238
12.84,0.86922
12.85,0.8617
12.86,0.82581
12.87,0.76473
12.88,0.68262
12.89,0.63918
12.9,0.63958
12.91,0.6396
12.92,0.63955
12.93,0.63937
12.94,0.63793
12.95,0.78337
12.96,1.0757
12.97,1.3667
12.98,1.6574
12.99,1.9475
13,2.2101
13.01,1.9475
13.02,1.6574
13.03,1.3666
13.04,1.0755
13.05,0.78289
13.06,0.61668
13.07,0.54153
13.08,0.46602
13.09,0.39765
13.1,0.4661
13.11,0.54181
13.12,0.61838
13.13,0.63914
13.14,0.63939
13.15,0.63943
13.16,0.63933
13.17,0.63858
13.18,0.68621
13.19,0.76119
13.2,0.83024
13.21,0.89003
13.22,0.93763
13.23,0.97071
13.24,0.98767
13.25,0.98767
13.26,0.97072
13.27,0.93764
13.28,0.89005
13.29,0.83028
13.3,0.76124
13.31,0.68627
13.32,0.63866
13.33,0.63944
13.34,0.63958
13.35,0.63964
13.36,0.63968
13.37,0.6397
13.38,0.63973
13.39,0.63976
13.4,0.63985
13.41,0.64196
13.42,0.66258
13.43,0.67404
13.44,0.67109
13.45,0.65503
13.46,0.63927
13.47,0.63955
13.48,0.63961
13.49,0.63964
13.5,0.63965
13.51,0.63966
13.52,0.63967
13.53,0.63967
13.54,0.63968
13.55,0.63968
13.56,0.63968
13.57,0.63969
13.58,0.63969
13.59,0.63969
13.6,0.63969
13.61,0.63969
13.62,0.63969
13.63,0.63969
13.64,0.63969
13.65,0.63969
13.66,0.63969
13.67,0.63969
13.68,0.63969
13.69,0.63969
13.7,0.63969
13.71,0.63969
13.72,0.63969
13.73,0.63969
13.74,0.63969
13.75,0.63968
13.76,0.63967
13.77,0.63966
13.78,0.6396
13.79,0.63917
13.8,0.68248
13.81,0.75769
13.82,0.81668
13.83,0.85238
13.84,0.86922
13.85,0.8617
13.86,0.82581
13.87,0.76473
13.88,0.68262
13.89,0.63918
13.9,0.63958
13.91,0.6396
13.92,0.63955
13.93,0.63937
13.94,0.63793
13.95,0.78337
13.96,1.0757
13.97,1.3667
13.98,1.6574
13.99,1.9475
14,2.2101
14.01,1.9475
14.02,1.6574
14.03,1.3666
14.04,1.0755
14.05,0.78289
14.06,0.61668
14.07,0.54153
14.08,0.46602
14.09,0.39765
14.1,0.4661
14.11,0.54181
14.12,0.61838
14.13,0.63914
14.14,0.63939
14.15,0.63943
14.16,0.63933
14.17,0.63858
14.18,0.68621
14.19,0.76119
14.2,0.83024
14.21,0.89003
14.22,0.93763
14.23,0.97071
14.24,0.98767
14.25,0.98767
14.26,0.97072
14.27,0.93764
14.28,0.89005
14.29,0.83028
14.3,0.76124
14.31,0.68627
14.32,0.63866
14.33,0.63944
14.34,0.63958
14.35,0.63964
14.36,0.63968
14.37,0.6397
14.38,0.63973
14.39,0.63976
14.4,0.63985
14.41,0.64196
14.42,0.66258
14.43,0.67404
14.44,0.67109
14.45,0.65503
14.46,0.63927
14.47,0.63955
14.48,0.63961
14.49,0.63964
14.5,0.63965
14.51,0.63966
14.52,0.63967
14.53,0.63967
14.54,0.63968
14.55,0.63968
14.56,0.63968
14.57,0.63969
14.58,0.63969
14.59,0.63969
14.6,0.63969
14.61,0.63969
14.62,0.63969
14.63,0.63969
14.64,0.63969
14.65,0.63969
14.66,0.63969
14.67,0.63969
14.68,0.63969
14.69,0.63969
14.7,0.63969
14.71,0.63969
14.72,0.63969
14.73,0.63969
14.74,0.63969
14.75,0.63968
14.76,0.63967
14.77,0.63966
14.78,0.6396
14.79,0.63917
14.8,0.68248
14.81,0.75769
14.82,0.81668
14.83,0.85238
14.84,0.86922
14.85,0.8617
14.86,0.82581
14.87,0.76473
14.88,0.68262
14.89,0.63918
14.9,0.63958
14.91,0.6396
14.92,0.63955
14.93,0.63937
14.94,0.63793
14.95,0.78337
14.96,1.0757
14.97,1.3667
14.98,1.6574
14.99,1.9475
15,2.2101
15.01,1.9475
15.02,1.6574
15.03,1.3666
15.04,1.0755
15.05,0.78289
15.06,0.61668
15.07,0.54153
15.08,0.46602
15.09,0.39765
15.1,0.4661
15.11,0.54181
15.12,0.61838
15.13,0.63914
15.14,0.63939
15.15,0.63943
15.16,0.63933
15.17,0.63858
15.18,0.68621
15.19,0.76119
15.2,0.83024
15.21,0.89003
15.22,0.93763
15.23,0.97071
15.24,0.98767
15.25,0.98767
15.26,0.97072
15.27,0.93764
15.28,0.89005
15.29,0.83028
15.3,0.76124
15.31,0.68627
15.32,0.63866
15.33,0.63944
15.34,0.63958
15.35,0.63964
15.36,0.63968
15.37,0.6397
15.38,0.63973
15.39,0.63976
15.4,0.63985
15.41,0.64196
15.42,0.66258
15.43,0.67404
15.44,0.67109
15.45,0.65503
15.46,0.63927
15.47,0.63955
15.48,0.63961
15.49,0.63964
15.5,0.63965
15.51,0.63966
15.52,0.63967
15.53,0.63967
15.54,0.63968
15.55,0.63968
15.56,0.63968
15.57,0.63969
15.58,0.63969
15.59,0.63969
15.6,0.63969
15.61,0.63969
15.62,0.63969
15.63,0.63969
15.64,0.63969
15.65,0.63969
15.66,0.63969
15.67,0.63969
15.68,0.63969
15.69,0.63969
15.7,0.63969
15.71,0.63969
15.72,0.63969
15.73,0.63969
15.74,0.63969
15.75,0.63968
15.76,0.63967
15.77,0.63966
15.78,0.6396
15.79,0.63917
15.8,0.68248
15.81,0.75769
15.82,0.81668
15.83,0.85238
15.84,0.86922
15.85,0.8617
15.86,0.82581
15.87,0.76473
15.88,0.68262
15.89,0.63918
15.9,0.63958
15.91,0.6396
15.92,0.63955
15.93,0.63937
15.94,0.63793
15.95,0.78337
15.96,1.0757
15.97,1.3667
15.98,1.6574
15.99,1.9475
16,2.2101
16.01,1.9475
16.02,1.6574
16.03,1.3666
16.04,1.0755
16.05,0.78289
16.06,0.61668
16.07,0.54153
16.08,0.46602
16.09,0.39765
16.1,0.4661
16.11,0.54181
16.12,0.61838
16.13,0.63914
16.14,0.63939
16.15,0.63943
16.16,0.63933
16.17,0.63858
16.18,0.68621
16.19,0.76119
16.2,0.83024
16.21,0.89003
16.22,0.93763
16.23,0.97071
16.24,0.98767
16.25,0.98767
16.26,0.97072
16.27,0.93764
16.28,0.89005
16.29,0.83028
16.3,0.76124
16.31,0.68627
16.32,0.63866
16.33,0.63944
16.34,0.63958
16.35,0.63964
16.36,0.63968
16.37,0.6397
16.38,0.63973
16.39,0.63976
16.4,0.63985
16.41,0.64196
16.42,0.66258
16.43,0.67404
16.44,0.67109
16.45,0.65503
16.46,0.63927
16.47,0.63955
16.48,0.63961
16.49,0.63964
16.5,0.63965
16.51,0.63966
16.52,0.63967
16.53,0.63967
16.54,0.63968
16.55,0.63968
16.56,0.63968
16.57,0.63969
16.58,0.63969
16.59,0.63969
16.6,0.63969
16.61,0.63969
16.62,0.63969
16.63,0.63969
16.64,0.63969
16.65,0.63969
16.66,0.63969
16.67,0.63969
16.68,0.63969
16.69,0.63969
16.7,0.63969
16.71,0.63969
16.72,0.63969
16.73,0.63969
16.74,0.63969
16.75,0.63968
16.76,0.63967
16.77,0.63966
16.78,0.6396
16.79,0.63917
16.8,0.68248
16.81,0.75769
16.82,0.81668
16.83,0.85238
16.84,0.86922
16.85,0.8617
16.86,0.82581
16.87,0.76473
16.88,0.68262
16.89,0.63918
16.9,0.63958
16.91,0.6396
16.92,0.63955
16.93,0.63937
16.94,0.63793
16.95,0.78337
16.96,1.0757
16.97,1.3667
16.98,1.6574
16.99,1.9475
17,2.2101
17.01,1.9475
17.02,1.6574
17.03,1.3666
17.04,1.0755
17.05,0.78289
17.06,0.61668
17.07,0.54153
17.08,0.46602
17.09,0.39765
17.1,0.4661
17.11,0.54181
17.12,0.61838
17.13,0.63914
17.14,0.63939
17.15,0.63943
17.16,0.63933
17.17,0.63858
17.18,0.68621
17.19,0.76119
17.2,0.83024
17.21,0.89003
17.22,0.93763
17.23,0.97071
17.24,0.98767
17.25,0.98767
17.26,0.97072
17.27,0.93764
17.28,0.89005
17.29,0.83028
17.3,0.76124
17.31,0.68627
17.32,0.63866
17.33,0.63944
17.34,0.63958
17.35,0.63964
17.36,0.63968
17.37,0.6397
17.38,0.63973
17.39,0.63976
17.4,0.63985
17.41,0.64196
17.42,0.66258
17.43,0.67404
17.44,0.67109
17.45,0.65503
17.46,0.63927
17.47,0.63955
17.48,0.63961
17.49,0.63964
17.5,0.63965
17.51,0.63966
17.52,0.63967
17.53,0.63967
17.54,0.63968
17.55,0.63968
17.56,0.63968
17.57,0.63969
17.58,0.63969
17.59,0.63969
17.6,0.63969
17.61,0.63969
17.62,0.63969
17.63,0.63969
17.64,0.63969
17.65,0.63969
17.66,0.63969
17.67,0.63969
17.68,0.63969
17.69,0.63969
17.7,0.63969
17.71,0.63969
17.72,0.63969
17.73,0.63969
17.74,0.63969
17.75,0.63968
17.76,0.63967
17.77,0.63966
17.78,0.6396
17.79,0.63917
17.8,0.68248
17.81,0.75769
17.82,0.81668
17.83,0.85238
17.84,0.86922
17.85,0.8617
17.86,0.82581
17.87,0.76473
17.88,0.68262
17.89,0.63918
17.9,0.63958
17.91,0.6396
17.92,0.63955
17.93,0.63937
17.94,0.63793
17.95,0.78337
17.96,1.0757
17.97,1.3667
17.98,1.6574
17.99,1.9475
18,2.2101
18.01,1.9475
18.02,1.6574
18.03,1.3666
18.04,1.0755
18.05,0.78289
18.06,0.61668
18.07,0.54153
18.08,0.46602
18.09,0.39765
18.1,0.4661
18.11,0.54181
18.12,0.61838
18.13,0.63914
18.14,0.63939
18.15,0.63943
18.16,0.63933
18.17,0.63858
18.18,0.68621
18.19,0.76119
18.2,0.83024
18.21,0.89003
18.22,0.93763
18.23,0.97071
18.24,0.98767
18.25,0.98767
18.26,0.97072
18.27,0.93764
18.28,0.89005
18.29,0.83028
18.3,0.76124
18.31,0.68627
18.32,0.63866
18.33,0.63944
18.34,0.63958
18.35,0.63964
18.36,0.63968
18.37,0.6397
18.38,0.63973
18.39,0.63976
18.4,0.63985
18.41,0.64196
18.42,0.66258
18.43,0.67404
18.44,0.67109
18.45,0.65503
18.46,0.63927
18.47,0.63955
18.48,0.63961
18.49,0.63964
18.5,0.63965
18.51,0.63966
18.52,0.63967
18.53,0.63967
18.54,0.63968
18.55,0.63968
18.56,0.63968
18.57,0.63969
18.58,0.63969
18.59,0.63969
18.6,0.63969
18.61,0.63969
18.62,0.63969
18.63,0.63969
18.64,0.63969
18.65,0.63969
18.66,0.63969
18.67,0.63969
18.68,0.63969
18.69,0.63969
18.7,0.63969
18.71,0.63969
18.72,0.63969
18.73,0.63969
18.74,0.63969
18.75,0.63968
18.76,0.63967
18.77,0.63966
18.78,0.6396
18.79,0.63917
18.8,0.68248
18.81,0.75769
18.82,0.81668
18.83,0.85238
18.84,0.86922
18.85,0.8617
18.86,0.82581
18.87,0.76473
18.88,0.68262
18.89,0.63918
18.9,0.63958
18.91,0.6396
18.92,0.63955
18.93,0.63937
18.94,0.63793
18.95,0.78337
18.96,1.0757
18.97,1.3667
18.98,1.6574
18.99,1.9475
19,2.2101
19.01,1.9475
19.02,1.6574
19.03,1.3666
19.04,1.0755
19.05,0.78289
19.06,0.61668
19.07,0.54153
19.08,0.46602
19.09,0.39765
19.1,0.4661
19.11,0.54181
19.12,0.61838
19.13,0.63914
19.14,0.63939
19.15,0.63943
19.16,0.63933
19.17,0.63858
19.18,0.68621
19.19,0.76119
19.2,0.83024
19.21,0.89003
19.22,0.93763
19.23,0.97071
19.24,0.98767
19.25,0.98767
19.26,0.97072
19.27,0.93764
19.28,0.89005
19.29,0.83028
19.3,0.76124
19.31,0.68627
19.32,0.63866
19.33,0.63944
19.34,0.63958
19.35,0.63964
19.36,0.63968
19.37,0.6397
19.38,0.63973
19.39,0.63976
19.4,0.63985
19.41,0.64196
19.42,0.66258
19.43,0.67404
19.44,0.67109
19.45,0.65503
19.46,0.63927
19.47,0.63955
19.48,0.63961
19.49,0.63964
19.5,0.63965
19.51,0.63966
19.52,0.63967
19.53,0.63967
19.54,0.63968
19.55,0.63968
19.56,0.63968
19.57,0.63969
19.58,0.63969
19.59,0.63969
19.6,0.63969
19.61,0.63969
19.62,0.63969
19.63,0.63969
19.64,0.63969
19.65,0.63969
19.66,0.63969
19.67,0.63969
19.68,0.63969
19.69,0.63969
19.7,0.63969
19.71,0.63969
19.72,0.63969
19.73,0.63969
19.74,0.63969
19.75,0.63968
19.76,0.63967
19.77,0.63966
19.78,0.6396
19.79,0.63917
19.8,0.68248
19.81,0.75769
19.82,0.81668
19.83,0.85238
19.84,0.86922
19.85,0.8617
19.86,0.82581
19.87,0.76473
19.88,0.68262
19.89,0.63918
19.9,0.63958
19.91,0.6396
19.92,0.63955
19.93,0.63937
19.94,0.63793
19.95,0.78337
19.96,1.0757
19.97,1.3667
19.98,1.6574
19.99,1.9475
20,2.2101
20.01,1.9475
20.02,1.6574
20.03,1.3666
20.04,1.0755
20.05,0.78289
20.06,0.61668
20.07,0.54153
20.08,0.46602
20.09,0.39765
20.1,0.4661
20.11,0.54181
20.12,0.61838
20.13,0.63914
20.14,0.63939
20.15,0.63943
20.16,0.63933
20.17,0.63858
20.18,0.68621
20.19,0.76119
20.2,0.83024
20.21,0.89003
20.22,0.93763
20.23,0.97071
20.24,0.98767
20.25,0.98767
20.26,0.97072
20.27,0.93764
20.28,0.89005
20.29,0.83028
20.3,0.76124
20.31,0.68627
20.32,0.63866
20.33,0.63944
20.34,0.63958
20.35,0.63964
20.36,0.63968
20.37,0.6397
20.38,0.63973
20.39,0.63976
20.4,0.63985
20.41,0.64196
20.42,0.66258
20.43,0.67404
20.44,0.67109
20.45,0.65503
20.46,0.63927
20.47,0.63955
20.48,0.63961
20.49,0.63964
20.5,0.63965
20.51,0.63966
20.52,0.63967
20.53,0.63967
20.54,0.63968
20.55,0.63968
20.56,0.63968
20.57,0.63969
20.58,0.63969
20.59,0.63969
20.6,0.63969
20.61,0.63969
20.62,0.63969
20.63,0.63969
20.64,0.63969
20.65,0.63969
20.66,0.63969
20.67,0.63969
20.68,0.63969
20.69,0.63969
20.7,0.63969
20.71,0.63969
20.72,0.63969
20.73,0.63969
20.74,0.63969
20.75,0.63968
20.76,0.63967
20.77,0.63966
20.78,0.6396
20.79,0.63917
20.8,0.68248
20.81,0.75769
20.82,0.81668
20.83,0.85238
20.84,0.86922
20.85,0.8617
20.86,0.82581
20.87,0.76473
20.88,0.68262
20.89,0.63918
20.9,0.63958
20.91,0.6396
20.92,0.63955
20.93,0.63937
20.94,0.63793
20.95,0.78337
20.96,1.0757
20.97,1.3667
20.98,1.6574
20.99,1.9475
21,2.2101
21.01,1.9475
21.02,1.6574
21.03,1.3666
21.04,1.0755
21.05,0.78289
21.06,0.61668
21.07,0.54153
21.08,0.46602
21.09,0.39765
21.1,0.4661
21.11,0.54181
21.12,0.61838
21.13,0.63914
21.14,0.63939
21.15,0.63943
21.16,0.63933
21.17,0.63858
21.18,0.68621
21.19,0.76119
21.2,0.83024
21.21,0.89003
21.22,0.93763
21.23,0.97071
21.24,0.98767
21.25,0.98767
21.26,0.97072
21.27,0.93764
21.28,0.89005
21.29,0.83028
21.3,0.76124
21.31,0.68627
21.32,0.63866
21.33,0.63944
21.34,0.63958
21.35,0.63964
21.36,0.63968
21.37,0.6397
21.38,0.63973
21.39,0.63976
21.4,0.63985
21.41,0.64196
21.42,0.66258
21.43,0.67404
21.44,0.67109
21.45,0.65503
21.46,0.63927
21.47,0.63955
21.48,0.63961
21.49,0.63964
21.5,0.63965
21.51,0.63966
21.52,0.63967
21.53,0.63967
21.54,0.63968
21.55,0.63968
21.56,0.63968
21.57,0.63969
21.58,0.63969
21.59,0.63969
21.6,0.63969
21.61,0.63969
21.62,0.63969
21.63,0.63969
21.64,0.63969
21.65,0.63969
21.66,0.63969
21.67,0.63969
21.68,0.63969
21.69,0.63969
21.7,0.63969
21.71,0.63969
21.72,0.63969
21.73,0.63969
21.74,0.63969
21.75,0.63968
21.76,0.63967
21.77,0.63966
21.78,0.6396
21.79,0.63917
21.8,0.68248
21.81,0.75769
21.82,0.81668
21.83,0.85238
21.84,0.86922
21.85,0.8617
21.86,0.82581
21.87,0.76473
21.88,0.68262
21.89,0.63918
21.9,0.63958
21.91,0.6396
21.92,0.63955
21.93,0.63937
21.94,0.63793
21.95,0.78337
21.96,1.0757
21.97,1.3667
21.98,1.6574
21.99,1.9475
22,2.2101
22.01,1.9475
22.02,1.6574
22.03,1.3666
22.04,1.0755
22.05,0.78289
22.06,0.61668
22.07,0.54153
22.08,0.46602
22.09,0.39765
22.1,0.4661
22.11,0.54181
22.12,0.61838
22.13,0.63914
22.14,0.63939
22.15,0.63943
22.16,0.63933
22.17,0.63858
22.18,0.68621
22.19,0.76119
22.2,0.83024
22.21,0.89003
22.22,0.93763
22.23,0.97071
22.24,0.98767
22.25,0.98767
22.26,0.97072
22.27,0.93764
22.28,0.89005
22.29,0.83028
22.3,0.76124
22.31,0.68627
22.32,0.63866
22.33,0.63944
22.34,0.63958
22.35,0.63964
22.36,0.63968
22.37,0.6397
22.38,0.63973
22.39,0.63976
22.4,0.63985
22.41,0.64196
22.42,0.66258
22.43,0.67404
22.44,0.67109
22.45,0.65503
22.46,0.63927
22.47,0.63955
22.48,0.63961
22.49,0.63964
22.5,0.63965
22.51,0.63966
22.52,0.63967
22.53,0.63967
22.54,0.63968
22.55,0.63968
22.56,0.63968
22.57,0.63969
22.58,0.63969
22.59,0.63969
22.6,0.63969
22.61,0.63969
22.62,0.63969
22.63,0.63969
22.64,0.63969
22.65,0.63969
22.66,0.63969
22.67,0.63969
22.68,0.63969
22.69,0.63969
22.7,0.63969
22.71,0.63969
22.72,0.63969
22.73,0.63969
22.74,0.63969
22.75,0.63968
22.76,0.63967
22.77,0.63966
22.78,0.6396
22.79,0.63917
22.8,0.68248
22.81,0.75769
22.82,0.81668
22.83,0.85238
22.84,0.86922
22.85,0.8617
22.86,0.82581
22.87,0.76473
22.88,0.68262
22.89,0.63918
22.9,0.63958
22.91,0.6396
22.92,0.63955
22.93,0.63937
22.94,0.63793
22.95,0.78337
22.96,1.0757
22.97,1.3667
22.98,1.6574
22.99,1.9475
23,2.2101
23.01,1.9475
23.02,1.6574
23.03,1.3666
23.04,1.0755
23.05,0.78289
23.06,0.61668
23.07,0.54153
23.08,0.46602
23.09,0.39765
23.1,0.4661
23.11,0.54181
23.12,0.61838
23.13,0.63914
23.14,0.63939
23.15,0.63943
23.16,0.63933
23.17,0.63858
23.18,0.68621
23.19,0.76119
23.2,0.83024
23.21,0.89003
23.22,0.93763
23.23,0.97071
23.24,0.98767
23.25,0.98767
23.26,0.97072
23.27,0.93764
23.28,0.89005
23.29,0.83028
23.3,0.76124
23.31,0.68627
23.32,0.63866
23.33,0.63944
23.34,0.63958
23.35,0.63964
23.36,0.63968
23.37,0.6397
23.38,0.63973
23.39,0.63976
23.4,0.63985
23.41,0.64196
23.42,0.66258
23.43,0.67404
23.44,0.67109
23.45,0.65503
23.46,0.63927
23.47,0.63955
23.48,0.63961
23.49,0.63964
23.5,0.63965
23.51,0.63966
23.52,0.63967
23.53,0.63967
23.54,0.63968
23.55,0.63968
23.56,0.63968
23.57,0.63969
23.58,0.63969
23.59,0.63969
23.6,0.63969
23.61,0.63969
23.62,0.63969
23.63,0.63969
23.64,0.63969
23.65,0.63969
23.66,0.63969
23.67,0.63969
23.68,0.63969
23.69,0.63969
23.7,0.63969
23.71,0.63969
23.72,0.63969
23.73,0.63969
23.74,0.63969
23.75,0.63968
23.76,0.63967
23.77,0.63966
23.78,0.6396
23.79,0.63917
23.8,0.68248
23.81,0.75769
23.82,0.81668
23.83,0.85238
23.84,0.86922
23.85,0.8617
23.86,0.82581
23.87,0.76473
23.88,0.68262
23.89,0.63918
23.9,0.63958
23.91,0.6396
23.92,0.63955
23.93,0.63937
23.94,0.63793
23.95,0.78337
23.96,1.0757
23.97,1.3667
23.98,1.6574
23.99,1.9475
24,2.2101
24.01,1.9475
24.02,1.6574
24.03,1.3666
24.04,1.0755
24.05,0.78289
24.06,0.61668
24.07,0.54153
24.08,0.46602
24.09,0.39765
24.1,0.4661
24.11,0.54181
24.12,0.61838
24.13,0.63914
24.14,0.63939
24.15,0.63943
24.16,0.63933
24.17,0.63858
24.18,0.68621
24.19,0.76119
24.2,0.83024
24.21,0.89003
24.22,0.93763
24.23,0.97071
24.24,0.98767
24.25,0.98767
24.26,0.97072
24.27,0.93764
24.28,0.89005
24.29,0.83028
24.3,0.76124
24.31,0.68627
24.32,0.63866
24.33,0.63944
24.34,0.63958
24.35,0.63964
24.36,0.63968
24.37,0.6397
24.38,0.63973
24.39,0.63976
24.4,0.63985
24.41,0.64196
24.42,0.66258
24.43,0.67404
24.44,0.67109
24.45,0.65503
24.46,0.63927
24.47,0.63955
24.48,0.63961
24.49,0.63964
24.5,0.63965
24.51,0.63966
24.52,0.63967
24.53,0.63967
24.54,0.63968
24.55,0.63968
24.56,0.63968
24.57,0.63969
24.58,0.63969
24.59,0.63969
24.6,0.63969
24.61,0.63969
24.62,0.63969
24.63,0.63969
24.64,0.63969
24.65,0.63969
24.66,0.63969
24.67,0.63969
24.68,0.63969
24.69,0.63969
24.7,0.63969
24.71,0.63969
24.72,0.63969
24.73,0.63969
24.74,0.63969
24.75,0.63968
24.76,0.63967
24.77,0.63966
24.78,0.6396
24.79,0.63917
24.8,0.68248
24.81,0.75769
24.82,0.81668
24.83,0.85238
24.84,0.86922
24.85,0.8617
24.86,0.82581
24.87,0.76473
24.88,0.68262
24.89,0.63918
24.9,0.63958
24.91,0.6396
24.92,0.63955
24.93,0.63937
24.94,0.63793
24.95,0.78337
24.96,1.0757
24.97,1.3667
24.98,1.6574
24.99,1.9475
25,2.2101
25.01,1.9475
25.02,1.6574
25.03,1.3666
25.04,1.0755
25.05,0.78289
25.06,0.61668
25.07,0.54153
25.08,0.46602
25.09,0.39765
25.1,0.4661
25.11,0.54181
25.12,0.61838
25.13,0.63914
25.14,0.63939
25.15,0.63943
25.16,0.63933
25.17,0.63858
25.18,0.68621
25.19,0.76119
25.2,0.83024
25.21,0.89003
25.22,0.93763
25.23,0.97071
25.24,0.98767
25.25,0.98767
25.26,0.97072
25.27,0.93764
25.28,0.89005
25.29,0.83028
25.3,0.76124
25.31,0.68627
25.32,0.63866
25.33,0.63944
25.34,0.63958
25.35,0.63964
25.36,0.63968
25.37,0.6397
25.38,0.63973
25.39,0.63976
25.4,0.63985
25.41,0.64196
25.42,0.66258
25.43,0.67404
25.44,0.67109
25.45,0.65503
25.46,0.63927
25.47,0.63955
25.48,0.63961
25.49,0.63964
25.5,0.63965
25.51,0.63966
25.52,0.63967
25.53,0.63967
25.54,0.63968
25.55,0.63968
25.56,0.63968
25.57,0.63969
25.58,0.63969
25.59,0.63969
25.6,0.63969
25.61,0.63969
25.62,0.63969
25.63,0.63969
25.64,0.63969
25.65,0.63969
25.66,0.63969
25.67,0.63969
25.68,0.63969
25.69,0.63969
25.7,0.63969
25.71,0.63969
25.72,0.63969
25.73,0.63969
25.74,0.63969
25.75,0.63968
25.76,0.63967
25.77,0.63966
25.78,0.6396
25.79,0.63917
25.8,0.68248
25.81,0.75769
25.82,0.81668
25.83,0.85238
25.84,0.86922
25.85,0.8617
25.86,0.82581
25.87,0.76473
25.88,0.68262
25.89,0.63918
25.9,0.63958
25.91,0.6396
25.92,0.63955
25.93,0.63937
25.94,0.63793
25.95,0.78337
25.96,1.0757
25.97,1.3667
25.98,1.6574
25.99,1.9475
26,2.2101
26.01,1.9475
26.02,1.6574
26.03,1.3666
26.04,1.0755
26.05,0.78289
26.06,0.61668
26.07,0.54153
26.08,0.46602
26.09,0.39765
26.1,0.4661
26.11,0.54181
26.12,0.61838
26.13,0.63914
26.14,0.63939
26.15,0.63943
26.16,0.63933
26.17,0.63858
26.18,0.68621
26.19,0.76119
26.2,0.83024
26.21,0.89003
26.22,0.93763
26.23,0.97071
26.24,0.98767
26.25,0.98767
26.26,0.97072
26.27,0.93764
26.28,0.89005
26.29,0.83028
26.3,0.76124
26.31,0.68627
26.32,0.63866
26.33,0.63944
26.34,0.63958
26.35,0.63964
26.36,0.63968
26.37,0.6397
26.38,0.63973
26.39,0.63976
26.4,0.63985
26.41,0.64196
26.42,0.66258
26.43,0.67404
26.44,0.67109
26.45,0.65503
26.46,0.63927
26.47,0.63955
26.48,0.63961
26.49,0.63964
26.5,0.63965
26.51,0.63966
26.52,0.63967
26.53,0.63967
26.54,0.63968
26.55,0.63968
26.56,0.63968
26.57,0.63969
26.58,0.63969
26.59,0.63969
26.6,0.63969
26.61,0.63969
26.62,0.63969
26.63,0.63969
26.64,0.63969
26.65,0.63969
26.66,0.63969
26.67,0.63969
26.68,0.63969
26.69,0.63969
26.7,0.63969
26.71,0.63969
26.72,0.63969
26.73,0.63969
26.74,0.63969
26.75,0.63968
26.76,0.63967
26.77,0.63966
26.78,0.6396
26.79,0.63917
26.8,0.68248
26.81,0.75769
26.82,0.81668
26.83,0.85238
26.84,0.86922
26.85,0.8617
26.86,0.82581
26.87,0.76473
26.88,0.68262
26.89,0.63918
26.9,0.63958
26.91,0.6396
26.92,0.63955
26.93,0.63937
26.94,0.63793
26.95,0.78337
26.96,1.0757
26.97,1.3667
26.98,1.6574
26.99,1.9475
27,2.2101
27.01,1.9475
27.02,1.6574
27.03,1.3666
27.04,1.0755
27.05,0.78289
27.06,0.61668
27.07,0.54153
27.08,0.46602
27.09,0.39765
27.1,0.4661
27.11,0.54181
27.12,0.61838
27.13,0.63914
27.14,0.63939
27.15,0.63943
27.16,0.63933
27.17,0.63858
27.18,0.68621
27.19,0.76119
27.2,0.83024
27.21,0.89003
27.22,0.93763
27.23,0.97071
27.24,0.98767
27.25,0.98767
27.26,0.97072
27.27,0.93764
27.28,0.89005
27.29,0.83028
27.3,0.76124
27.31,0.68627
27.32,0.63866
27.33,0.63944
27.34,0.63958
27.35,0.63964
27.36,0.63968
27.37,0.6397
27.38,0.63973
27.39,0.63976
27.4,0.63985
27.41,0.64196
27.42,0.66258
27.43,0.67404
27.44,0.67109
27.45,0.65503
27.46,0.63927
27.47,0.63955
27.48,0.63961
27.49,0.63964
27.5,0.63965
27.51,0.63966
27.52,0.63967
27.53,0.63967
27.54,0.63968
27.55,0.63968
27.56,0.63968
27.57,0.63969
27.58,0.63969
27.59,0.63969
27.6,0.63969
27.61,0.63969
27.62,0.63969
27.63,0.63969
27.64,0.63969
27.65,0.63969
27.66,0.63969
27.67,0.63969
27.68,0.63969
27.69,0.63969
27.7,0.63969
27.71,0.63969
27.72,0.63969
27.73,0.63969
27.74,0.63969
27.75,0.63968
27.76,0.63967
27.77,0.63966
27.78,0.6396
27.79,0.63917
27.8,0.68248
27.81,0.75769
27.82,0.81668
27.83,0.85238
27.84,0.86922
27.85,0.8617
27.86,0.82581
27.87,0.76473
27.88,0.68262
27.89,0.63918
27.9,0.63958
27.91,0.6396
27.92,0.63955
27.93,0.63937
27.94,0.63793
27.95,0.78337
27.96,1.0757
27.97,1.3667
27.98,1.6574
27.99,1.9475
28,2.2101
28.01,1.9475
28.02,1.6574
28.03,1.3666
28.04,1.0755
28.05,0.78289
28.06,0.61668
28.07,0.54153
28.08,0.46602
28.09,0.39765
28.1,0.4661
28.11,0.54181
28.12,0.61838
28.13,0.63914
28.14,0.63939
28.15,0.63943
28.16,0.63933
28.17,0.63858
28.18,0.68621
28.19,0.76119
28.2,0.83024
28.21,0.89003
28.22,0.93763
28.23,0.97071
28.24,0.98767
28.25,0.98767
28.26,0.97072
28.27,0.93764
28.28,0.89005
28.29,0.83028
28.3,0.76124
28.31,0.68627
28.32,0.63866
28.33,0.63944
28.34,0.63958
28.35,0.63964
28.36,0.63968
28.37,0.6397
28.38,0.63973
28.39,0.63976
28.4,0.63985
28.41,0.64196
28.42,0.66258
28.43,0.67404
28.44,0.67109
28.45,0.65503
28.46,0.63927
28.47,0.63955
28.48,0.63961
28.49,0.63964
28.5,0.63965
28.51,0.63966
28.52,0.63967
28.53,0.63967
28.54,0.63968
28.55,0.63968
28.56,0.63968
28.57,0.63969
28.58,0.63969
28.59,0.63969
28.6,0.63969
28.61,0.63969
28.62,0.63969
28.63,0.63969
28.64,0.63969
28.65,0.63969
28.66,0.63969
28.67,0.63969
28.68,0.63969
28.69,0.63969
28.7,0.63969
28.71,0.63969
28.72,0.63969
28.73,0.63969
28.74,0.63969
28.75,0.63968
28.76,0.63967
28.77,0.63966
28.78,0.6396
28.79,0.63917
28.8,0.68248
28.81,0.75769
28.82,0.81668
28.83,0.85238
28.84,0.86922
28.85,0.8617
28.86,0.82581
28.87,0.76473
28.88,0.68262
28.89,0.63918
28.9,0.63958
28.91,0.6396
28.92,0.63955
28.93,0.63937
28.94,0.63793
28.95,0.78337
28.96,1.0757
28.97,1.3667
28.98,1.6574
28.99,1.9475
29,2.2101
29.01,1.9475
29.02,1.6574
29.03,1.3666
29.04,1.0755
29.05,0.78289
29.06,0.61668
29.07,0.54153
29.08,0.46602
29.09,0.39765
29.1,0.4661
29.11,0.54181
29.12,0.61838
29.13,0.63914
29.14,0.63939
29.15,0.63943
29.16,0.63933
29.17,0.63858
29.18,0.68621
29.19,0.76119
29.2,0.83024
29.21,0.89003
29.22,0.93763
29.23,0.97071
29.24,0.98767
29.25,0.98767
29.26,0.97072
29.27,0.93764
29.28,0.89005
29.29,0.83028
29.3,0.76124
29.31,0.68627
29.32,0.63866
29.33,0.63944
29.34,0.63958
29.35,0.63964
29.36,0.63968
29.37,0.6397
29.38,0.63973
29.39,0.63976
29.4,0.63985
29.41,0.64196
29.42,0.66258
29.43,0.67404
29.44,0.67109
29.45,0.65503
29.46,0.63927
29.47,0.63955
29.48,0.63961
29.49,0.63964
29.5,0.63965
29.51,0.63966
29.52,0.63967
29.53,0.63967
29.54,0.63968
29.55,0.63968
29.56,0.63968
29.57,0.63969
29.58,0.63969
29.59,0.63969
29.6,0.63969
29.61,0.63969
29.62,0.63969
29.63,0.63969
29.64,0.63969
29.65,0.63969
29.66,0.63969
29.67,0.63969
29.68,0.63969
29.69,0.63969
29.7,0.63969
29.71,0.63969
29.72,0.63969
29.73,0.63969
29.74,0.63969
29.75,0.63968
29.76,0.63967
29.77,0.63966
29.78,0.6396
29.79,0.63917
29.8,0.68248
29.81,0.75769
29.82,0.81668
29.83,0.85238
29.84,0.86922
29.85,0.8617
29.86,0.82581
29.87,0.76473
29.88,0.68262
29.89,0.63918
29.9,0.63958
29.91,0.6396
29.92,0.63955
29.93,0.63937
29.94,0.63793
29.95,0.78337
29.96,1.0757
29.97,1.3667
29.98,1.6574
29.99,1.9475
30,2.2101
30.01,1.9475
30.02,1.6574
30.03,1.3666
30.04,1.0755
30.05,0.78289
30.06,0.61668
30.07,0.54153
30.08,0.46602
30.09,0.39765
30.1,0.4661
30.11,0.54181
30.12,0.61838
30.13,0.63914
30.14,0.63939
30.15,0.63943
30.16,0.63933
30.17,0.63858
30.18,0.68621
30.19,0.76119
30.2,0.83024
30.21,0.89003
30.22,0.93763
30.23,0.97071
30.24,0.98767
30.25,0.98767
30.26,0.97072
30.27,0.93764
30.28,0.89005
30.29,0.83028
30.3,0.76124
30.31,0.68627
30.32,0.63866
30.33,0.63944
30.34,0.63958
30.35,0.63964
30.36,0.63968
30.37,0.6397
30.38,0.63973
30.39,0.63976
30.4,0.63985
30.41,0.64196
30.42,0.66258
30.43,0.67404
30.44,0.67109
30.45,0.65503
30.46,0.63927
30.47,0.63955
30.48,0.63961
30.49,0.63964
30.5,0.63965
30.51,0.63966
30.52,0.63967
30.53,0.63967
30.54,0.63968
30.55,0.63968
30.56,0.63968
30.57,0.63969
30.58,0.63969
30.59,0.63969
30.6,0.63969
30.61,0.63969
30.62,0.63969
30.63,0.63969
30.64,0.63969
30.65,0.63969
30.66,0.63969
30.67,0.63969
30.68,0.63969
30.69,0.63969
30.7,0.63969
30.71,0.63969
30.72,0.63969
30.73,0.63969
30.74,0.63969
30.75,0.63968
30.76,0.63967
30.77,0.63966
30.78,0.6396
30.79,0.63917
30.8,0.68248
30.81,0.75769
30.82,0.81668
30.83,0.85238
30.84,0.86922
30.85,0.8617
30.86,0.82581
30.87,0.76473
30.88,0.68262
30.89,0.63918
30.9,0.63958
30.91,0.6396
30.92,0.63955
30.93,0.63937
30.94,0.63793
30.95,0.78337
30.96,1.0757
30.97,1.3667
30.98,1.6574
30.99,1.9475
31,2.2101
31.01,1.9475
31.02,1.6574
31.03,1.3666
31.04,1.0755
31.05,0.78289
31.06,0.61668
31.07,0.54153
31.08,0.46602
31.09,0.39765
31.1,0.4661
31.11,0.54181
31.12,0.61838
31.13,0.63914
31.14,0.63939
31.15,0.63943
31.16,0.63933
31.17,0.63858
31.18,0.68621
31.19,0.76119
31.2,0.83024
31.21,0.89003
31.22,0.93763
31.23,0.97071
31.24,0.98767
31.25,0.98767
31.26,0.97072
31.27,0.93764
31.28,0.89005
31.29,0.83028
31.3,0.76124
31.31,0.68627
31.32,0.63866
31.33,0.63944
31.34,0.63958
31.35,0.63964
31.36,0.63968
31.37,0.6397
31.38,0.63973
31.39,0.63976
31.4,0.63985
31.41,0.64196
31.42,0.66258
31.43,0.67404
31.44,0.67109
31.45,0.65503
31.46,0.63927
31.47,0.63955
31.48,0.63961
31.49,0.63964
31.5,0.63965
31.51,0.63966
31.52,0.63967
31.53,0.63967
31.54,0.63968
31.55,0.63968
31.56,0.63968
31.57,0.63969
31.58,0.63969
31.59,0.63969
31.6,0.63969
31.61,0.63969
31.62,0.63969
31.63,0.63969
31.64,0.63969
31.65,0.63969
31.66,0.63969
31.67,0.63969
31.68,0.63969
31.69,0.63969
31.7,0.63969
31.71,0.63969
31.72,0.63969
31.73,0.63969
31.74,0.63969
31.75,0.63968
31.76,0.63967
31.77,0.63966
31.78,0.6396
31.79,0.63917
31.8,0.68248
31.81,0.75769
31.82,0.81668
31.83,0.85238
31.84,0.86922
31.85,0.8617
31.86,0.82581
31.87,0.76473
31.88,0.68262
31.89,0.63918
31.9,0.63958
31.91,0.6396
31.92,0.63955
31.93,0.63937
31.94,0.63793
31.95,0.78337
31.96,1.0757
31.97,1.3667
31.98,1.6574
31.99,1.9475
32,2.2101
32.01,1.9475
32.02,1.6574
32.03,1.3666
32.04,1.0755
32.05,0.78289
32.06,0.61668
32.07,0.54153
32.08,0.46602
32.09,0.39765
32.1,0.4661
32.11,0.54181
32.12,0.61838
32.13,0.63914
32.14,0.63939
32.15,0.63943
32.16,0.63933
32.17,0.63858
32.18,0.68621
32.19,0.76119
32.2,0.83024
32.21,0.89003
32.22,0.93763
32.23,0.97071
32.24,0.98767
32.25,0.98767
32.26,0.97072
32.27,0.93764
32.28,0.89005
32.29,0.83028
32.3,0.76124
32.31,0.68627
32.32,0.63866
32.33,0.63944
32.34,0.63958
32.35,0.63964
32.36,0.63968
32.37,0.6397
32.38,0.63973
32.39,0.63976
32.4,0.63985
32.41,0.64196
32.42,0.66258
32.43,0.67404
32.44,0.67109
32.45,0.65503
32.46,0.63927
32.47,0.63955
32.48,0.63961
32.49,0.63964
32.5,0.63965
32.51,0.63966
32.52,0.63967
32.53,0.63967
32.54,0.63968
32.55,0.63968
32.56,0.63968
32.57,0.63969
32.58,0.63969
32.59,0.63969
32.6,0.63969
32.61,0.63969
32.62,0.63969
32.63,0.63969
32.64,0.63969
32.65,0.63969
32.66,0.63969
32.67,0.63969
32.68,0.63969
32.69,0.63969
32.7,0.63969
32.71,0.63969
32.72,0.63969
32.73,0.63969
32.74,0.63969
32.75,0.63968
32.76,0.63967
32.77,0.63966
32.78,0.6396
32.79,0.63917
32.8,0.68248
32.81,0.75769
32.82,0.81668
32.83,0.85238
32.84,0.86922
32.85,0.8617
32.86,0.82581
32.87,0.76473
32.88,0.68262
32.89,0.63918
32.9,0.63958
32.91,0.6396
32.92,0.63955
32.93,0.63937
32.94,0.63793
32.95,0.78337
32.96,1.0757
32.97,1.3667
32.98,1.6574
32.99,1.9475
33,2.2101
33.01,1.9475
33.02,1.6574
33.03,1.3666
33.04,1.0755
33.05,0.78289
33.06,0.61668
33.07,0.54153
33.08,0.46602
33.09,0.39765
33.1,0.4661
33.11,0.54181
33.12,0.61838
33.13,0.63914
33.14,0.63939
33.15,0.63943
33.16,0.63933
33.17,0.63858
33.18,0.68621
33.19,0.76119
33.2,0.83024
33.21,0.89003
33.22,0.93763
33.23,0.97071
33.24,0.98767
33.25,0.98767
33.26,0.97072
33.27,0.93764
33.28,0.89005
33.29,0.83028
33.3,0.76124
33.31,0.68627
33.32,0.63866
33.33,0.63944
33.34,0.63958
33.35,0.63964
33.36,0.63968
33.37,0.6397
33.38,0.63973
33.39,0.63976
33.4,0.63985
33.41,0.64196
33.42,0.66258
33.43,0.67404
33.44,0.67109
33.45,0.65503
33.46,0.63927
33.47,0.63955
33.48,0.63961
33.49,0.63964
33.5,0.63965
33.51,0.63966
33.52,0.63967
33.53,0.63967
33.54,0.63968
33.55,0.63968
33.56,0.63968
33.57,0.63969
33.58,0.63969
33.59,0.63969
33.6,0.63969
33.61,0.63969
33.62,0.63969
33.63,0.63969
33.64,0.63969
33.65,0.63969
33.66,0.63969
33.67,0.63969
33.68,0.63969
33.69,0.63969
33.7,0.63969
33.71,0.63969
33.72,0.63969
33.73,0.63969
33.74,0.63969
33.75,0.63968
33.76,0.63967
33.77,0.63966
33.78,0.6396
33.79,0.63917
33.8,0.68248
33.81,0.75769
33.82,0.81668
33.83,0.85238
33.84,0.86922
33.85,0.8617
33.86,0.82581
33.87,0.76473
33.88,0.68262
33.89,0.63918
33.9,0.63958
33.91,0.6396
33.92,0.63955
33.93,0.63937
33.94,0.63793
33.95,0.78337
33.96,1.0757
33.97,1.3667
33.98,1.6574
33.99,1.9475
34,2.2101
34.01,1.9475
34.02,1.6574
34.03,1.3666
34.04,1.0755
34.05,0.78289
34.06,0.61668
34.07,0.54153
34.08,0.46602
34.09,0.39765
34.1,0.4661
34.11,0.54181
34.12,0.61838
34.13,0.63914
34.14,0.63939
34.15,0.63943
34.16,0.63933
34.17,0.63858
34.18,0.68621
34.19,0.76119
34.2,0.83024
34.21,0.89003
34.22,0.93763
34.23,0.97071
34.24,0.98767
34.25,0.98767
34.26,0.97072
34.27,0.93764
34.28,0.89005
34.29,0.83028
34.3,0.76124
34.31,0.68627
34.32,0.63866
34.33,0.63944
34.34,0.63958
34.35,0.63964
34.36,0.63968
34.37,0.6397
34.38,0.63973
34.39,0.63976
34.4,0.63985
34.41,0.64196
34.42,0.66258
34.43,0.67404
34.44,0.67109
34.45,0.65503
34.46,0.63927
34.47,0.63955
34.48,0.63961
34.49,0.63964
34.5,0.63965
34.51,0.63966
34.52,0.63967
34.53,0.63967
34.54,0.63968
34.55,0.63968
34.56,0.63968
34.57,0.63969
34.58,0.63969
34.59,0.63969
34.6,0.63969
34.61,0.63969
34.62,0.63969
34.63,0.63969
34.64,0.63969
34.65,0.63969
34.66,0.63969
34.67,0.63969
34.68,0.63969
34.69,0.63969
34.7,0.63969
34.71,0.63969
34.72,0.63969
34.73,0.63969
34.74,0.63969
34.75,0.63968
34.76,0.63967
34.77,0.63966
34.78,0.6396
34.79,0.63917
34.8,0.68248
34.81,0.75769
34.82,0.81668
34.83,0.85238
34.84,0.86922
34.85,0.8617
34.86,0.82581
34.87,0.76473
34.88,0.68262
34.89,0.63918
34.9,0.63958
34.91,0.6396
34.92,0.63955
34.93,0.63937
34.94,0.63793
34.95,0.78337
34.96,1.0757
34.97,1.3667
34.98,1.6574
34.99,1.9475
35,2.2101
35.01,1.9475
35.02,1.6574
35.03,1.3666
35.04,1.0755
35.05,0.78289
35.06,0.61668
35.07,0.54153
35.08,0.46602
35.09,0.39765
35.1,0.4661
35.11,0.54181
35.12,0.61838
35.13,0.63914
35.14,0.63939
35.15,0.63943
35.16,0.63933
35.17,0.63858
35.18,0.68621
35.19,0.76119
35.2,0.83024
35.21,0.89003
35.22,0.93763
35.23,0.97071
35.24,0.98767
35.25,0.98767
35.26,0.97072
35.27,0.93764
35.28,0.89005
35.29,0.83028
35.3,0.76124
35.31,0.68627
35.32,0.63866
35.33,0.63944
35.34,0.63958
35.35,0.63964
35.36,0.63968
35.37,0.6397
35.38,0.63973
35.39,0.63976
35.4,0.63985
35.41,0.64196
35.42,0.66258
35.43,0.67404
35.44,0.67109
35.45,0.65503
35.46,0.63927
35.47,0.63955
35.48,0.63961
35.49,0.63964
35.5,0.63965
35.51,0.63966
35.52,0.63967
35.53,0.63967
35.54,0.63968
35.55,0.63968
35.56,0.63968
35.57,0.63969
35.58,0.63969
35.59,0.63969
35.6,0.63969
35.61,0.63969
35.62,0.63969
35.63,0.63969
35.64,0.63969
35.65,0.63969
35.66,0.63969
35.67,0.63969
35.68,0.63969
35.69,0.63969
35.7,0.63969
35.71,0.63969
35.72,0.63969
35.73,0.63969
35.74,0.63969
35.75,0.63968
35.76,0.63967
35.77,0.63966
35.78,0.6396
35.79,0.63917
35.8,0.68248
35.81,0.75769
35.82,0.81668
35.83,0.85238
35.84,0.86922
35.85,0.8617
35.86,0.82581
35.87,0.76473
35.88,0.68262
35.89,0.63918
35.9,0.63958
35.91,0.6396
35.92,0.63955
35.93,0.63937
35.94,0.63793
35.95,0.78337
35.96,1.0757
35.97,1.3667
35.98,1.6574
35.99,1.9475
36,2.2101
36.01,1.9475
36.02,1.6574
36.03,1.3666
36.04,1.0755
36.05,0.78289
36.06,0.61668
36.07,0.54153
36.08,0.46602
36.09,0.39765
36.1,0.4661
36.11,0.54181
36.12,0.61838
36.13,0.63914
36.14,0.63939
36.15,0.63943
36.16,0.63933
36.17,0.63858
36.18,0.68621
36.19,0.76119
36.2,0.83024
36.21,0.89003
36.22,0.93763
36.23,0.97071
36.24,0.98767
36.25,0.98767
36.26,0.97072
36.27,0.93764
36.28,0.89005
36.29,0.83028
36.3,0.76124
36.31,0.68627
36.32,0.63866
36.33,0.63944
36.34,0.63958
36.35,0.63964
36.36,0.63968
36.37,0.6397
36.38,0.63973
36.39,0.63976
36.4,0.63985
36.41,0.64196
36.42,0.66258
36.43,0.67404
36.44,0.67109
36.45,0.65503
36.46,0.63927
36.47,0.63955
36.48,0.63961
36.49,0.63964
36.5,0.63965
36.51,0.63966
36.52,0.63967
36.53,0.63967
36.54,0.63968
36.55,0.63968
36.56,0.63968
36.57,0.63969
36.58,0.63969
36.59,0.63969
36.6,0.63969
36.61,0.63969
36.62,0.63969
36.63,0.63969
36.64,0.63969
36.65,0.63969
36.66,0.63969
36.67,0.63969
36.68,0.63969
36.69,0.63969
36.7,0.63969
36.71,0.63969
36.72,0.63969
36.73,0.63969
36.74,0.63969
36.75,0.63968
36.76,0.63967
36.77,0.63966
36.78,0.6396
36.79,0.63917
36.8,0.68248
36.81,0.75769
36.82,0.81668
36.83,0.85238
36.84,0.86922
36.85,0.8617
36.86,0.82581
36.87,0.76473
36.88,0.68262
36.89,0.63918
36.9,0.63958
36.91,0.6396
36.92,0.63955
36.93,0.63937
36.94,0.63793
36.95,0.78337
36.96,1.0757
36.97,1.3667
36.98,1.6574
36.99,1.9475
37,2.2101
37.01,1.9475
37.02,1.6574
37.03,1.3666
37.04,1.0755
37.05,0.78289
37.06,0.61668
37.07,0.54153
37.08,0.46602
37.09,0.39765
37.1,0.4661
37.11,0.54181
37.12,0.61838
37.13,0.63914
37.14,0.63939
37.15,0.63943
37.16,0.63933
37.17,0.63858
37.18,0.68621
37.19,0.76119
37.2,0.83024
37.21,0.89003
37.22,0.93763
37.23,0.97071
37.24,0.98767
37.25,0.98767
37.26,0.97072
37.27,0.93764
37.28,0.89005
37.29,0.83028
37.3,0.76124
37.31,0.68627
37.32,0.63866
37.33,0.63944
37.34,0.63958
37.35,0.63964
37.36,0.63968
37.37,0.6397
37.38,0.63973
37.39,0.63976
37.4,0.63985
37.41,0.64196
37.42,0.66258
37.43,0.67404
37.44,0.67109
37.45,0.65503
37.46,0.63927
37.47,0.63955
37.48,0.63961
37.49,0.63964
37.5,0.63965
37.51,0.63966
37.52,0.63967
37.53,0.63967
37.54,0.63968
37.55,0.63968
37.56,0.63968
37.57,0.63969
37.58,0.63969
37.59,0.63969
37.6,0.63969
37.61,0.63969
37.62,0.63969
37.63,0.63969
37.64,0.63969
37.65,0.63969
37.66,0.63969
37.67,0.63969
37.68,0.63969
37.69,0.63969
37.7,0.63969
37.71,0.63969
37.72,0.63969
37.73,0.63969
37.74,0.63969
37.75,0.63968
37.76,0.63967
37.77,0.63966
37.78,0.6396
37.79,0.63917
37.8,0.68248
37.81,0.75769
37.82,0.81668
37.83,0.85238
37.84,0.86922
37.85,0.8617
37.86,0.82581
37.87,0.76473
37.88,0.68262
37.89,0.63918
37.9,0.63958
37.91,0.6396
37.92,0.63955
37.93,0.63937
37.94,0.63793
37.95,0.78337
37.96,1.0757
37.97,1.3667
37.98,1.6574
37.99,1.9475
38,2.2101
38.01,1.9475
38.02,1.6574
38.03,1.3666
38.04,1.0755
38.05,0.78289
38.06,0.61668
38.07,0.54153
38.08,0.46602
38.09,0.39765
38.1,0.4661
38.11,0.54181
38.12,0.61838
38.13,0.63914
38.14,0.63939
38.15,0.63943
38.16,0.63933
38.17,0.63858
38.18,0.68621
38.19,0.76119
38.2,0.83024
38.21,0.89003
38.22,0.93763
38.23,0.97071
38.24,0.98767
38.25,0.98767
38.26,0.97072
38.27,0.93764
38.28,0.89005
38.29,0.83028
38.3,0.76124
38.31,0.68627
38.32,0.63866
38.33,0.63944
38.34,0.63958
38.35,0.63964
38.36,0.63968
38.37,0.6397
38.38,0.63973
38.39,0.63976
38.4,0.63985
38.41,0.64196
38.42,0.66258
38.43,0.67404
38.44,0.67109
38.45,0.65503
38.46,0.63927
38.47,0.63955
38.48,0.63961
38.49,0.63964
38.5,0.63965
38.51,0.63966
38.52,0.63967
38.53,0.63967
38.54,0.63968
38.55,0.63968
38.56,0.63968
38.57,0.63969
38.58,0.63969
38.59,0.63969
38.6,0.63969
38.61,0.63969
38.62,0.63969
38.63,0.63969
38.64,0.63969
38.65,0.63969
38.66,0.63969
38.67,0.63969
38.68,0.63969
38.69,0.63969
38.7,0.63969
38.71,0.63969
38.72,0.63969
38.73,0.63969
38.74,0.63969
38.75,0.63968
38.76,0.63967
38.77,0.63966
38.78,0.6396
38.79,0.63917
38.8,0.68248
38.81,0.75769
38.82,0.81668
38.83,0.85238
38.84,0.86922
38.85,0.8617
38.86,0.82581
38.87,0.76473
38.88,0.68262
38.89,0.63918
38.9,0.63958
38.91,0.6396
38.92,0.63955
38.93,0.63937
38.94,0.63793
38.95,0.78337
38.96,1.0757
38.97,1.3667
38.98,1.6574
38.99,1.9475
39,2.2101
39.01,1.9475
39.02,1.6574
39.03,1.3666
39.04,1.0755
39.05,0.78289
39.06,0.61668
39.07,0.54153
39.08,0.46602
39.09,0.39765
39.1,0.4661
39.11,0.54181
39.12,0.61838
39.13,0.63914
39.14,0.63939
39.15,0.63943
39.16,0.63933
39.17,0.63858
39.18,0.68621
39.19,0.76119
39.2,0.83024
39.21,0.89003
39.22,0.93763
39.23,0.97071
39.24,0.98767
39.25,0.98767
39.26,0.97072
39.27,0.93764
39.28,0.89005
39.29,0.83028
39.3,0.76124
39.31,0.68627
39.32,0.63866
39.33,0.63944
39.34,0.63958
39.35,0.63964
39.36,0.63968
39.37,0.6397
39.38,0.63973
39.39,0.63976
39.4,0.63985
39.41,0.64196
39.42,0.66258
39.43,0.67404
39.44,0.67109
39.45,0.65503
39.46,0.63927
39.47,0.63955
39.48,0.63961
39.49,0.63964
39.5,0.63965
39.51,0.63966
39.52,0.63967
39.53,0.63967
39.54,0.63968
39.55,0.63968
39.56,0.63968
39.57,0.63969
39.58,0.63969
39.59,0.63969
39.6,0.63969
39.61,0.63969
39.62,0.63969
39.63,0.63969
39.64,0.63969
39.65,0.63969
39.66,0.63969
39.67,0.63969
39.68,0.63969
39.69,0.63969
39.7,0.63969
39.71,0.63969
39.72,0.63969
39.73,0.63969
39.74,0.63969
39.75,0.63968
39.76,0.63967
39.77,0.63966
39.78,0.6396
39.79,0.63917
39.8,0.68248
39.81,0.75769
39.82,0.81668
39.83,0.85238
39.84,0.86922
39.85,0.8617
39.86,0.82581
39.87,0.76473
39.88,0.68262
39.89,0.63918
39.9,0.63958
39.91,0.6396
39.92,0.63955
39.93,0.63937
39.94,0.63793
39.95,0.78337
39.96,1.0757
39.97,1.3667
39.98,1.6574
39.99,1.9475
40,2.2101
40.01,1.9475
40.02,1.6574
40.03,1.3666
40.04,1.0755
40.05,0.78289
40.06,0.61668
40.07,0.54153
40.08,0.46602
40.09,0.39765
40.1,0.4661
40.11,0.54181
40.12,0.61838
40.13,0.63914
40.14,0.63939
40.15,0.63943
40.16,0.63933
40.17,0.63858
40.18,0.68621
40.19,0.76119
40.2,0.83024
40.21,0.89003
40.22,0.93763
40.23,0.97071
40.24,0.98767
40.25,0.98767
40.26,0.97072
40.27,0.93764
40.28,0.89005
40.29,0.83028
40.3,0.76124
40.31,0.68627
40.32,0.63866
40.33,0.63944
40.34,0.63958
40.35,0.63964
40.36,0.63968
40.37,0.6397
40.38,0.63973
40.39,0.63976
40.4,0.63985
40.41,0.64196
40.42,0.66258
40.43,0.67404
40.44,0.67109
40.45,0.65503
40.46,0.63927
40.47,0.63955
40.48,0.63961
40.49,0.63964
40.5,0.63965
40.51,0.63966
40.52,0.63967
40.53,0.63967
40.54,0.63968
40.55,0.63968
40.56,0.63968
40.57,0.63969
40.58,0.63969
40.59,0.63969
40.6,0.63969
40.61,0.63969
40.62,0.63969
40.63,0.63969
40.64,0.63969
40.65,0.63969
40.66,0.63969
40.67,0.63969
40.68,0.63969
40.69,0.63969
40.7,0.63969
40.71,0.63969
40.72,0.63969
40.73,0.63969
40.74,0.63969
40.75,0.63968
40.76,0.63967
40.77,0.63966
40.78,0.6396
40.79,0.63917
40.8,0.68248
40.81,0.75769
40.82,0.81668
40.83,0.85238
40.84,0.86922
40.85,0.8617
40.86,0.82581
40.87,0.76473
40.88,0.68262
40.89,0.63918
40.9,0.63958
40.91,0.6396
40.92,0.63955
40.93,0.63937
40.94,0.63793
40.95,0.78337
40.96,1.0757
40.97,1.3667
40.98,1.6574
40.99,1.9475
41,2.2101
41.01,1.9475
41.02,1.6574
41.03,1.3666
41.04,1.0755
41.05,0.78289
41.06,0.61668
41.07,0.54153
41.08,0.46602
41.09,0.39765
41.1,0.4661
41.11,0.54181
41.12,0.61838
41.13,0.63914
41.14,0.63939
41.15,0.63943
41.16,0.63933
41.17,0.63858
41.18,0.68621
41.19,0.76119
41.2,0.83024
41.21,0.89003
41.22,0.93763
41.23,0.97071
41.24,0.98767
41.25,0.98767
41.26,0.97072
41.27,0.93764
41.28,0.89005
41.29,0.83028
41.3,0.76124
41.31,0.68627
41.32,0.63866
41.33,0.63944
41.34,0.63958
41.35,0.63964
41.36,0.63968
41.37,0.6397
41.38,0.63973
41.39,0.63976
41.4,0.63985
41.41,0.64196
41.42,0.66258
41.43,0.67404
41.44,0.67109
41.45,0.65503
41.46,0.63927
41.47,0.63955
41.48,0.63961
41.49,0.63964
41.5,0.63965
41.51,0.63966
41.52,0.63967
41.53,0.63967
41.54,0.63968
41.55,0.63968
41.56,0.63968
41.57,0.63969
41.58,0.63969
41.59,0.63969
41.6,0.63969
41.61,0.63969
41.62,0.63969
41.63,0.63969
41.64,0.63969
41.65,0.63969
41.66,0.63969
41.67,0.63969
41.68,0.63969
41.69,0.63969
41.7,0.63969
41.71,0.63969
41.72,0.63969
41.73,0.63969
41.74,0.63969
41.75,0.63968
41.76,0.63967
41.77,0.63966
41.78,0.6396
41.79,0.63917
41.8,0.68248
41.81,0.75769
41.82,0.81668
41.83,0.85238
41.84,0.86922
41.85,0.8617
41.86,0.82581
41.87,0.76473
41.88,0.68262
41.89,0.63918
41.9,0.63958
41.91,0.6396
41.92,0.63955
41.93,0.63937
41.94,0.63793
41.95,0.78337
41.96,1.0757
41.97,1.3667
41.98,1.6574
41.99,1.9475
42,2.2101
42.01,1.9475
42.02,1.6574
42.03,1.3666
42.04,1.0755
42.05,0.78289
42.06,0.61668
42.07,0.54153
42.08,0.46602
42.09,0.39765
42.1,0.4661
42.11,0.54181
42.12,0.61838
42.13,0.63914
42.14,0.63939
42.15,0.63943
42.16,0.63933
42.17,0.63858
42.18,0.68621
42.19,0.76119
42.2,0.83024
42.21,0.89003
42.22,0.93763
42.23,0.97071
42.24,0.98767
42.25,0.98767
42.26,0.97072
42.27,0.93764
42.28,0.89005
42.29,0.83028
42.3,0.76124
42.31,0.68627
42.32,0.63866
42.33,0.63944
42.34,0.63958
42.35,0.63964
42.36,0.63968
42.37,0.6397
42.38,0.63973
42.39,0.63976
42.4,0.63985
42.41,0.64196
42.42,0.66258
42.43,0.67404
42.44,0.67109
42.45,0.65503
42.46,0.63927
42.47,0.63955
42.48,0.63961
42.49,0.63964
42.5,0.63965
42.51,0.63966
42.52,0.63967
42.53,0.63967
42.54,0.63968
42.55,0.63968
42.56,0.63968
42.57,0.63969
42.58,0.63969
42.59,0.63969
42.6,0.63969
42.61,0.63969
42.62,0.63969
42.63,0.63969
42.64,0.63969
42.65,0.63969
42.66,0.63969
42.67,0.63969
42.68,0.63969
42.69,0.63969
42.7,0.63969
42.71,0.63969
42.72,0.63969
42.73,0.63969
42.74,0.63969
42.75,0.63968
42.76,0.63967
42.77,0.63966
42.78,0.6396
42.79,0.63917
42.8,0.68248
42.81,0.75769
42.82,0.81668
42.83,0.85238
42.84,0.86922
42.85,0.8617
42.86,0.82581
42.87,0.76473
42.88,0.68262
42.89,0.63918
42.9,0.63958
42.91,0.6396
42.92,0.63955
42.93,0.63937
42.94,0.63793
42.95,0.78337
42.96,1.0757
42.97,1.3667
42.98,1.6574
42.99,1.9475
43,2.2101
43.01,1.9475
43.02,1.6574
43.03,1.3666
43.04,1.0755
43.05,0.78289
43.06,0.61668
43.07,0.54153
43.08,0.46602
43.09,0.39765
43.1,0.4661
43.11,0.54181
43.12,0.61838
43.13,0.63914
43.14,0.63939
43.15,0.63943
43.16,0.63933
43.17,0.63858
43.18,0.68621
43.19,0.76119
43.2,0.83024
43.21,0.89003
43.22,0.93763
43.23,0.97071
43.24,0.98767
43.25,0.98767
43.26,0.97072
43.27,0.93764
43.28,0.89005
43.29,0.83028
43.3,0.76124
43.31,0.68627
43.32,0.63866
43.33,0.63944
43.34,0.63958
43.35,0.63964
43.36,0.63968
43.37,0.6397
43.38,0.63973
43.39,0.63976
43.4,0.63985
43.41,0.64196
43.42,0.66258
43.43,0.67404
43.44,0.67109
43.45,0.65503
43.46,0.63927
43.47,0.63955
43.48,0.63961
43.49,0.63964
43.5,0.63965
43.51,0.63966
43.52,0.63967
43.53,0.63967
43.54,0.63968
43.55,0.63968
43.56,0.63968
43.57,0.63969
43.58,0.63969
43.59,0.63969
43.6,0.63969
43.61,0.63969
43.62,0.63969
43.63,0.63969
43.64,0.63969
43.65,0.63969
43.66,0.63969
43.67,0.63969
43.68,0.63969
43.69,0.63969
43.7,0.63969
43.71,0.63969
43.72,0.63969
43.73,0.63969
43.74,0.63969
43.75,0.63968
43.76,0.63967
43.77,0.63966
43.78,0.6396
43.79,0.63917
43.8,0.68248
43.81,0.75769
43.82,0.81668
43.83,0.85238
43.84,0.86922
43.85,0.8617
43.86,0.82581
43.87,0.76473
43.88,0.68262
43.89,0.63918
43.9,0.63958
43.91,0.6396
43.92,0.63955
43.93,0.63937
43.94,0.63793
43.95,0.78337
43.96,1.0757
43.97,1.3667
43.98,1.6574
43.99,1.9475
44,2.2101
44.01,1.9475
44.02,1.6574
44.03,1.3666
44.04,1.0755
44.05,0.78289
44.06,0.61668
44.07,0.54153
44.08,0.46602
44.09,0.39765
44.1,0.4661
44.11,0.54181
44.12,0.61838
44.13,0.63914
44.14,0.63939
44.15,0.63943
44.16,0.63933
44.17,0.63858
44.18,0.68621
44.19,0.76119
44.2,0.83024
44.21,0.89003
44.22,0.93763
44.23,0.97071
44.24,0.98767
44.25,0.98767
44.26,0.97072
44.27,0.93764
44.28,0.89005
44.29,0.83028
44.3,0.76124
44.31,0.68627
44.32,0.63866
44.33,0.63944
44.34,0.63958
44.35,0.63964
44.36,0.63968
44.37,0.6397
44.38,0.63973
44.39,0.63976
44.4,0.63985
44.41,0.64196
44.42,0.66258
44.43,0.67404
44.44,0.67109
44.45,0.65503
44.46,0.63927
44.47,0.63955
44.48,0.63961
44.49,0.63964
44.5,0.63965
44.51,0.63966
44.52,0.63967
44.53,0.63967
44.54,0.63968
44.55,0.63968
44.56,0.63968
44.57,0.63969
44.58,0.63969
44.59,0.63969
44.6,0.63969
44.61,0.63969
44.62,0.63969
44.63,0.63969
44.64,0.63969
44.65,0.63969
44.66,0.63969
44.67,0.63969
44.68,0.63969
44.69,0.63969
44.7,0.63969
44.71,0.63969
44.72,0.63969
44.73,0.63969
44.74,0.63969
44.75,0.63968
44.76,0.63967
44.77,0.63966
44.78,0.6396
44.79,0.63917
44.8,0.68248
44.81,0.75769
44.82,0.81668
44.83,0.85238
44.84,0.86922
44.85,0.8617
44.86,0.82581
44.87,0.76473
44.88,0.68262
44.89,0.63918
44.9,0.63958
44.91,0.6396
44.92,0.63955
44.93,0.63937
44.94,0.63793
44.95,0.78337
44.96,1.0757
44.97,1.3667
44.98,1.6574
44.99,1.9475
45,2.2101
45.01,1.9475
45.02,1.6574
45.03,1.3666
45.04,1.0755
45.05,0.78289
45.06,0.61668
45.07,0.54153
45.08,0.46602
45.09,0.39765
45.1,0.4661
45.11,0.54181
45.12,0.61838
45.13,0.63914
45.14,0.63939
45.15,0.63943
45.16,0.63933
45.17,0.63858
45.18,0.68621
45.19,0.76119
45.2,0.83024
45.21,0.89003
45.22,0.93763
45.23,0.97071
45.24,0.98767
45.25,0.98767
45.26,0.97072
45.27,0.93764
45.28,0.89005
45.29,0.83028
45.3,0.76124
45.31,0.68627
45.32,0.63866
45.33,0.63944
45.34,0.63958
45.35,0.63964
45.36,0.63968
45.37,0.6397
45.38,0.63973
45.39,0.63976
45.4,0.63985
45.41,0.64196
45.42,0.66258
45.43,0.67404
45.44,0.67109
45.45,0.65503
45.46,0.63927
45.47,0.63955
45.48,0.63961
45.49,0.63964
45.5,0.63965
45.51,0.63966
45.52,0.63967
45.53,0.63967
45.54,0.63968
45.55,0.63968
45.56,0.63968
45.57,0.63969
45.58,0.63969
45.59,0.63969
45.6,0.63969
45.61,0.63969
45.62,0.63969
45.63,0.63969
45.64,0.63969
45.65,0.63969
45.66,0.63969
45.67,0.63969
45.68,0.63969
45.69,0.63969
45.7,0.63969
45.71,0.63969
45.72,0.63969
45.73,0.63969
45.74,0.63969
45.75,0.63968
45.76,0.63967
45.77,0.63966
45.78,0.6396
45.79,0.63917
45.8,0.68248
45.81,0.75769
45.82,0.81668
45.83,0.85238
45.84,0.86922
45.85,0.8617
45.86,0.82581
45.87,0.76473
45.88,0.68262
45.89,0.63918
45.9,0.63958
45.91,0.6396
45.92,0.63955
45.93,0.63937
45.94,0.63793
45.95,0.78337
45.96,1.0757
45.97,1.3667
45.98,1.6574
45.99,1.9475
46,2.2101
46.01,1.9475
46.02,1.6574
46.03,1.3666
46.04,1.0755
46.05,0.78289
46.06,0.61668
46.07,0.54153
46.08,0.46602
46.09,0.39765
46.1,0.4661
46.11,0.54181
46.12,0.61838
46.13,0.63914
46.14,0.63939
46.15,0.63943
46.16,0.63933
46.17,0.63858
46.18,0.68621
46.19,0.76119
46.2,0.83024
46.21,0.89003
46.22,0.93763
46.23,0.97071
46.24,0.98767
46.25,0.98767
46.26,0.97072
46.27,0.93764
46.28,0.89005
46.29,0.83028
46.3,0.76124
46.31,0.68627
46.32,0.63866
46.33,0.63944
46.34,0.63958
46.35,0.63964
46.36,0.63968
46.37,0.6397
46.38,0.63973
46.39,0.63976
46.4,0.63985
46.41,0.64196
46.42,0.66258
46.43,0.67404
46.44,0.67109
46.45,0.65503
46.46,0.63927
46.47,0.63955
46.48,0.63961
46.49,0.63964
46.5,0.63965
46.51,0.63966
46.52,0.63967
46.53,0.63967
46.54,0.63968
46.55,0.63968
46.56,0.63968
46.57,0.63969
46.58,0.63969
46.59,0.63969
46.6,0.63969
46.61,0.63969
46.62,0.63969
46.63,0.63969
46.64,0.63969
46.65,0.63969
46.66,0.63969
46.67,0.63969
46.68,0.63969
46.69,0.63969
46.7,0.63969
46.71,0.63969
46.72,0.63969
46.73,0.63969
46.74,0.63969
46.75,0.63968
46.76,0.63967
46.77,0.63966
46.78,0.6396
46.79,0.63917
46.8,0.68248
46.81,0.75769
46.82,0.81668
46.83,0.85238
46.84,0.86922
46.85,0.8617
46.86,0.82581
46.87,0.76473
46.88,0.68262
46.89,0.63918
46.9,0.63958
46.91,0.6396
46.92,0.63955
46.93,0.63937
46.94,0.63793
46.95,0.78337
46.96,1.0757
46.97,1.3667
46.98,1.6574
46.99,1.9475
47,2.2101
47.01,1.9475
47.02,1.6574
47.03,1.3666
47.04,1.0755
47.05,0.78289
47.06,0.61668
47.07,0.54153
47.08,0.46602
47.09,0.39765
47.1,0.4661
47.11,0.54181
47.12,0.61838
47.13,0.63914
47.14,0.63939
47.15,0.63943
47.16,0.63933
47.17,0.63858
47.18,0.68621
47.19,0.76119
47.2,0.83024
47.21,0.89003
47.22,0.93763
47.23,0.97071
47.24,0.98767
47.25,0.98767
47.26,0.97072
47.27,0.93764
47.28,0.89005
47.29,0.83028
47.3,0.76124
47.31,0.68627
47.32,0.63866
47.33,0.63944
47.34,0.63958
47.35,0.63964
47.36,0.63968
47.37,0.6397
47.38,0.63973
47.39,0.63976
47.4,0.63985
47.41,0.64196
47.42,0.66258
47.43,0.67404
47.44,0.67109
47.45,0.65503
47.46,0.63927
47.47,0.63955
47.48,0.63961
47.49,0.63964
47.5,0.63965
47.51,0.63966
47.52,0.63967
47.53,0.63967
47.54,0.63968
47.55,0.63968
47.56,0.63968
47.57,0.63969
47.58,0.63969
47.59,0.63969
47.6,0.63969
47.61,0.63969
47.62,0.63969
47.63,0.63969
47.64,0.63969
47.65,0.63969
47.66,0.63969
47.67,0.63969
47.68,0.63969
47.69,0.63969
47.7,0.63969
47.71,0.63969
47.72,0.63969
47.73,0.63969
47.74,0.63969
47.75,0.63968
47.76,0.63967
47.77,0.63966
47.78,0.6396
47.79,0.63917
47.8,0.68248
47.81,0.75769
47.82,0.81668
47.83,0.85238
47.84,0.86922
47.85,0.8617
47.86,0.82581
47.87,0.76473
47.88,0.68262
47.89,0.63918
47.9,0.63958
47.91,0.6396
47.92,0.63955
47.93,0.63937
47.94,0.63793
47.95,0.78337
47.96,1.0757
47.97,1.3667
47.98,1.6574
47.99,1.9475
48,2.2101
48.01,1.9475
48.02,1.6574
48.03,1.3666
48.04,1.0755
48.05,0.78289
48.06,0.61668
48.07,0.54153
48.08,0.46602
48.09,0.39765
48.1,0.4661
48.11,0.54181
48.12,0.61838
48.13,0.63914
48.14,0.63939
48.15,0.63943
48.16,0.63933
48.17,0.63858
48.18,0.68621
48.19,0.76119
48.2,0.83024
48.21,0.89003
48.22,0.93763
48.23,0.97071
48.24,0.98767
48.25,0.98767
48.26,0.97072
48.27,0.93764
48.28,0.89005
48.29,0.83028
48.3,0.76124
48.31,0.68627
48.32,0.63866
48.33,0.63944
48.34,0.63958
48.35,0.63964
48.36,0.63968
48.37,0.6397
48.38,0.63973
48.39,0.63976
48.4,0.63985
48.41,0.64196
48.42,0.66258
48.43,0.67404
48.44,0.67109
48.45,0.65503
48.46,0.63927
48.47,0.63955
48.48,0.63961
48.49,0.63964
48.5,0.63965
48.51,0.63966
48.52,0.63967
48.53,0.63967
48.54,0.63968
48.55,0.63968
48.56,0.63968
48.57,0.63969
48.58,0.63969
48.59,0.63969
48.6,0.63969
48.61,0.63969
48.62,0.63969
48.63,0.63969
48.64,0.63969
48.65,0.63969
48.66,0.63969
48.67,0.63969
48.68,0.63969
48.69,0.63969
48.7,0.63969
48.71,0.63969
48.72,0.63969
48.73,0.63969
48.74,0.63969
48.75,0.63968
48.76,0.63967
48.77,0.63966
48.78,0.6396
48.79,0.63917
48.8,0.68248
48.81,0.75769
48.82,0.81668
48.83,0.85238
48.84,0.86922
48.85,0.8617
48.86,0.82581
48.87,0.76473
48.88,0.68262
48.89,0.63918
48.9,0.63958
48.91,0.6396
48.92,0.63955
48.93,0.63937
48.94,0.63793
48.95,0.78337
48.96,1.0757
48.97,1.3667
48.98,1.6574
48.99,1.9475
49,2.2101
49.01,1.9475
49.02,1.6574
49.03,1.3666
49.04,1.0755
49.05,0.78289
49.06,0.61668
49.07,0.54153
49.08,0.46602
49.09,0.39765
49.1,0.4661
49.11,0.54181
49.12,0.61838
49.13,0.63914
49.14,0.63939
49.15,0.63943
49.16,0.63933
49.17,0.63858
49.18,0.68621
49.19,0.76119
49.2,0.83024
49.21,0.89003
49.22,0.93763
49.23,0.97071
49.24,0.98767
49.25,0.98767
49.26,0.97072
49.27,0.93764
49.28,0.89005
49.29,0.83028
49.3,0.76124
49.31,0.68627
49.32,0.63866
49.33,0.63944
49.34,0.63958
49.35,0.63964
49.36,0.63968
49.37,0.6397
49.38,0.63973
49.39,0.63976
49.4,0.63985
49.41,0.64196
49.42,0.66258
49.43,0.67404
49.44,0.67109
49.45,0.65503
49.46,0.63927
49.47,0.63955
49.48,0.63961
49.49,0.63964
49.5,0.63965
49.51,0.63966
49.52,0.63967
49.53,0.63967
49.54,0.63968
49.55,0.63968
49.56,0.63968
49.57,0.63969
49.58,0.63969
49.59,0.63969
49.6,0.63969
49.61,0.63969
49.62,0.63969
49.63,0.63969
49.64,0.63969
49.65,0.63969
49.66,0.63969
49.67,0.63969
49.68,0.63969
49.69,0.63969
49.7,0.63969
49.71,0.63969
49.72,0.63969
49.73,0.63969
49.74,0.63969
49.75,0.63968
49.76,0.63967
49.77,0.63966
49.78,0.6396
49.79,0.63917
49.8,0.68248
49.81,0.75769
49.82,0.81668
49.83,0.85238
49.84,0.86922
49.85,0.8617
49.86,0.82581
49.87,0.76473
49.88,0.68262
49.89,0.63918
49.9,0.63958
49.91,0.6396
49.92,0.63955
49.93,0.63937
49.94,0.63793
49.95,0.78337
49.96,1.0757
49.97,1.3667
49.98,1.6574
49.99,1.9475
50,2.2101
50.01,1.9475
50.02,1.6574
50.03,1.3666
50.04,1.0755
50.05,0.78289
50.06,0.61668
50.07,0.54153
50.08,0.46602
50.09,0.39765
50.1,0.4661
50.11,0.54181
50.12,0.61838
50.13,0.63914
50.14,0.63939
50.15,0.63943
50.16,0.63933
50.17,0.63858
50.18,0.68621
50.19,0.76119
50.2,0.83024
50.21,0.89003
50.22,0.93763
50.23,0.97071
50.24,0.98767
50.25,0.98767
50.26,0.97072
50.27,0.93764
50.28,0.89005
50.29,0.83028
50.3,0.76124
50.31,0.68627
50.32,0.63866
50.33,0.63944
50.34,0.63958
50.35,0.63964
50.36,0.63968
50.37,0.6397
50.38,0.63973
50.39,0.63976
50.4,0.63985
50.41,0.64196
50.42,0.66258
50.43,0.67404
50.44,0.67109
50.45,0.65503
50.46,0.63927
50.47,0.63955
50.48,0.63961
50.49,0.63964
50.5,0.63965
50.51,0.63966
50.52,0.63967
50.53,0.63967
50.54,0.63968
50.55,0.63968
50.56,0.63968
50.57,0.63969
50.58,0.63969
50.59,0.63969
50.6,0.63969
50.61,0.63969
50.62,0.63969
50.63,0.63969
50.64,0.63969
50.65,0.63969
50.66,0.63969
50.67,0.63969
50.68,0.63969
50.69,0.63969
50.7,0.63969
50.71,0.63969
50.72,0.63969
50.73,0.63969
50.74,0.63969
50.75,0.63968
50.76,0.63967
50.77,0.63966
50.78,0.6396
50.79,0.63917
50.8,0.68248
50.81,0.75769
50.82,0.81668
50.83,0.85238
50.84,0.86922
50.85,0.8617
50.86,0.82581
50.87,0.76473
50.88,0.68262
50.89,0.63918
50.9,0.63958
50.91,0.6396
50.92,0.63955
50.93,0.63937
50.94,0.63793
50.95,0.78337
50.96,1.0757
50.97,1.3667
50.98,1.6574
50.99,1.9475
51,2.2101
51.01,1.9475
51.02,1.6574
51.03,1.3666
51.04,1.0755
51.05,0.78289
51.06,0.61668
51.07,0.54153
51.08,0.46602
51.09,0.39765
51.1,0.4661
51.11,0.54181
51.12,0.61838
51.13,0.63914
51.14,0.63939
51.15,0.63943
51.16,0.63933
51.17,0.63858
51.18,0.68621
51.19,0.76119
51.2,0.83024
51.21,0.89003
51.22,0.93763
51.23,0.97071
51.24,0.98767
51.25,0.98767
51.26,0.97072
51.27,0.93764
51.28,0.89005
51.29,0.83028
51.3,0.76124
51.31,0.68627
51.32,0.63866
51.33,0.63944
51.34,0.63958
51.35,0.63964
51.36,0.63968
51.37,0.6397
51.38,0.63973
51.39,0.63976
51.4,0.63985
51.41,0.64196
51.42,0.66258
51.43,0.67404
51.44,0.67109
51.45,0.65503
51.46,0.63927
51.47,0.63955
51.48,0.63961
51.49,0.63964
51.5,0.63965
51.51,0.63966
51.52,0.63967
51.53,0.63967
51.54,0.63968
51.55,0.63968
51.56,0.63968
51.57,0.63969
51.58,0.63969
51.59,0.63969
51.6,0.63969
51.61,0.63969
51.62,0.63969
51.63,0.63969
51.64,0.63969
51.65,0.63969
51.66,0.63969
51.67,0.63969
51.68,0.63969
51.69,0.63969
51.7,0.63969
51.71,0.63969
51.72,0.63969
51.73,0.63969
51.74,0.63969
51.75,0.63968
51.76,0.63967
51.77,0.63966
51.78,0.6396
51.79,0.63917
51.8,0.68248
51.81,0.75769
51.82,0.81668
51.83,0.85238
51.84,0.86922
51.85,0.8617
51.86,0.82581
51.87,0.76473
51.88,0.68262
51.89,0.63918
51.9,0.63958
51.91,0.6396
51.92,0.63955
51.93,0.63937
51.94,0.63793
51.95,0.78337
51.96,1.0757
51.97,1.3667
51.98,1.6574
51.99,1.9475
52,2.2101
52.01,1.9475
52.02,1.6574
52.03,1.3666
52.04,1.0755
52.05,0.78289
52.06,0.61668
52.07,0.54153
52.08,0.46602
52.09,0.39765
52.1,0.4661
52.11,0.54181
52.12,0.61838
52.13,0.63914
52.14,0.63939
52.15,0.63943
52.16,0.63933
52.17,0.63858
52.18,0.68621
52.19,0.76119
52.2,0.83024
52.21,0.89003
52.22,0.93763
52.23,0.97071
52.24,0.98767
52.25,0.98767
52.26,0.97072
52.27,0.93764
52.28,0.89005
52.29,0.83028
52.3,0.76124
52.31,0.68627
52.32,0.63866
52.33,0.63944
52.34,0.63958
52.35,0.63964
52.36,0.63968
52.37,0.6397
52.38,0.63973
52.39,0.63976
52.4,0.63985
52.41,0.64196
52.42,0.66258
52.43,0.67404
52.44,0.67109
52.45,0.65503
52.46,0.63927
52.47,0.63955
52.48,0.63961
52.49,0.63964
52.5,0.63965
52.51,0.63966
52.52,0.63967
52.53,0.63967
52.54,0.63968
52.55,0.63968
52.56,0.63968
52.57,0.63969
52.58,0.63969
52.59,0.63969
52.6,0.63969
52.61,0.63969
52.62,0.63969
52.63,0.63969
52.64,0.63969
52.65,0.63969
52.66,0.63969
52.67,0.63969
52.68,0.63969
52.69,0.63969
52.7,0.63969
52.71,0.63969
52.72,0.63969
52.73,0.63969
52.74,0.63969
52.75,0.63968
52.76,0.63967
52.77,0.63966
52.78,0.6396
52.79,0.63917
52.8,0.68248
52.81,0.75769
52.82,0.81668
52.83,0.85238
52.84,0.86922
52.85,0.8617
52.86,0.82581
52.87,0.76473
52.88,0.68262
52.89,0.63918
52.9,0.63958
52.91,0.6396
52.92,0.63955
52.93,0.63937
52.94,0.63793
52.95,0.78337
52.96,1.0757
52.97,1.3667
52.98,1.6574
52.99,1.9475
53,2.2101
53.01,1.9475
53.02,1.6574
53.03,1.3666
53.04,1.0755
53.05,0.78289
53.06,0.61668
53.07,0.54153
53.08,0.46602
53.09,0.39765
53.1,0.4661
53.11,0.54181
53.12,0.61838
53.13,0.63914
53.14,0.63939
53.15,0.63943
53.16,0.63933
53.17,0.63858
53.18,0.68621
53.19,0.76119
53.2,0.83024
53.21,0.89003
53.22,0.93763
53.23,0.97071
53.24,0.98767
53.25,0.98767
53.26,0.97072
53.27,0.93764
53.28,0.89005
53.29,0.83028
53.3,0.76124
53.31,0.68627
53.32,0.63866
53.33,0.63944
53.34,0.63958
53.35,0.63964
53.36,0.63968
53.37,0.6397
53.38,0.63973
53.39,0.63976
53.4,0.63985
53.41,0.64196
53.42,0.66258
53.43,0.67404
53.44,0.67109
53.45,0.65503
53.46,0.63927
53.47,0.63955
53.48,0.63961
53.49,0.63964
53.5,0.63965
53.51,0.63966
53.52,0.63967
53.53,0.63967
53.54,0.63968
53.55,0.63968
53.56,0.63968
53.57,0.63969
53.58,0.63969
53.59,0.63969
53.6,0.63969
53.61,0.63969
53.62,0.63969
53.63,0.63969
53.64,0.63969
53.65,0.63969
53.66,0.63969
53.67,0.63969
53.68,0.63969
53.69,0.63969
53.7,0.63969
53.71,0.63969
53.72,0.63969
53.73,0.63969
53.74,0.63969
53.75,0.63968
53.76,0.63967
53.77,0.63966
53.78,0.6396
53.79,0.63917
53.8,0.68248
53.81,0.75769
53.82,0.81668
53.83,0.85238
53.84,0.86922
53.85,0.8617
53.86,0.82581
53.87,0.76473
53.88,0.68262
53.89,0.63918
53.9,0.63958
53.91,0.6396
53.92,0.63955
53.93,0.63937
53.94,0.63793
53.95,0.78337
53.96,1.0757
53.97,1.3667
53.98,1.6574
53.99,1.9475
54,2.2101
54.01,1.9475
54.02,1.6574
54.03,1.3666
54.04,1.0755
54.05,0.78289
54.06,0.61668
54.07,0.54153
54.08,0.46602
54.09,0.39765
54.1,0.4661
54.11,0.54181
54.12,0.61838
54.13,0.63914
54.14,0.63939
54.15,0.63943
54.16,0.63933
54.17,0.63858
54.18,0.68621
54.19,0.76119
54.2,0.83024
54.21,0.89003
54.22,0.93763
54.23,0.97071
54.24,0.98767
54.25,0.98767
54.26,0.97072
54.27,0.93764
54.28,0.89005
54.29,0.83028
54.3,0.76124
54.31,0.68627
54.32,0.63866
54.33,0.63944
54.34,0.63958
54.35,0.63964
54.36,0.63968
54.37,0.6397
54.38,0.63973
54.39,0.63976
54.4,0.63985
54.41,0.64196
54.42,0.66258
54.43,0.67404
54.44,0.67109
54.45,0.65503
54.46,0.63927
54.47,0.63955
54.48,0.63961
54.49,0.63964
54.5,0.63965
54.51,0.63966
54.52,0.63967
54.53,0.63967
54.54,0.63968
54.55,0.63968
54.56,0.63968
54.57,0.63969
54.58,0.63969
54.59,0.63969
54.6,0.63969
54.61,0.63969
54.62,0.63969
54.63,0.63969
54.64,0.63969
54.65,0.63969
54.66,0.63969
54.67,0.63969
54.68,0.63969
54.69,0.63969
54.7,0.63969
54.71,0.63969
54.72,0.63969
54.73,0.63969
54.74,0.63969
54.75,0.63968
54.76,0.63967
54.77,0.63966
54.78,0.6396
54.79,0.63917
54.8,0.68248
54.81,0.75769
54.82,0.81668
54.83,0.85238
54.84,0.86922
54.85,0.8617
54.86,0.82581
54.87,0.76473
54.88,0.68262
54.89,0.63918
54.9,0.63958
54.91,0.6396
54.92,0.63955
54.93,0.63937
54.94,0.63793
54.95,0.78337
54.96,1.0757
54.97,1.3667
54.98,1.6574
54.99,1.9475
55,2.2101
55.01,1.9475
55.02,1.6574
55.03,1.3666
55.04,1.0755
55.05,0.78289
55.06,0.61668
55.07,0.54153
55.08,0.46602
55.09,0.39765
55.1,0.4661
55.11,0.54181
55.12,0.61838
55.13,0.63914
55.14,0.63939
55.15,0.63943
55.16,0.63933
55.17,0.63858
55.18,0.68621
55.19,0.76119
55.2,0.83024
55.21,0.89003
55.22,0.93763
55.23,0.97071
55.24,0.98767
55.25,0.98767
55.26,0.97072
55.27,0.93764
55.28,0.89005
55.29,0.83028
55.3,0.76124
55.31,0.68627
55.32,0.63866
55.33,0.63944
55.34,0.63958
55.35,0.63964
55.36,0.63968
55.37,0.6397
55.38,0.63973
55.39,0.63976
55.4,0.63985
55.41,0.64196
55.42,0.66258
55.43,0.67404
55.44,0.67109
55.45,0.65503
55.46,0.63927
55.47,0.63955
55.48,0.63961
55.49,0.63964
55.5,0.63965
55.51,0.63966
55.52,0.63967
55.53,0.63967
55.54,0.63968
55.55,0.63968
55.56,0.63968
55.57,0.63969
55.58,0.63969
55.59,0.63969
55.6,0.63969
55.61,0.63969
55.62,0.63969
55.63,0.63969
55.64,0.63969
55.65,0.63969
55.66,0.63969
55.67,0.63969
55.68,0.63969
55.69,0.63969
55.7,0.63969
55.71,0.63969
55.72,0.63969
55.73,0.63969
55.74,0.63969
55.75,0.63968
55.76,0.63967
55.77,0.63966
55.78,0.6396
55.79,0.63917
55.8,0.68248
55.81,0.75769
55.82,0.81668
55.83,0.85238
55.84,0.86922
55.85,0.8617
55.86,0.82581
55.87,0.76473
55.88,0.68262
55.89,0.63918
55.9,0.63958
55.91,0.6396
55.92,0.63955
55.93,0.63937
55.94,0.63793
55.95,0.78337
55.96,1.0757
55.97,1.3667
55.98,1.6574
55.99,1.9475
56,2.2101
56.01,1.9475
56.02,1.6574
56.03,1.3666
56.04,1.0755
56.05,0.78289
56.06,0.61668
56.07,0.54153
56.08,0.46602
56.09,0.39765
56.1,0.4661
56.11,0.54181
56.12,0.61838
56.13,0.63914
56.14,0.63939
56.15,0.63943
56.16,0.63933
56.17,0.63858
56.18,0.68621
56.19,0.76119
56.2,0.83024
56.21,0.89003
56.22,0.93763
56.23,0.97071
56.24,0.98767
56.25,0.98767
56.26,0.97072
56.27,0.93764
56.28,0.89005
56.29,0.83028
56.3,0.76124
56.31,0.68627
56.32,0.63866
56.33,0.63944
56.34,0.63958
56.35,0.63964
56.36,0.63968
56.37,0.6397
56.38,0.63973
56.39,0.63976
56.4,0.63985
56.41,0.64196
56.42,0.66258
56.43,0.67404
56.44,0.67109
56.45,0.65503
56.46,0.63927
56.47,0.63955
56.48,0.63961
56.49,0.63964
56.5,0.63965
56.51,0.63966
56.52,0.63967
56.53,0.63967
56.54,0.63968
56.55,0.63968
56.56,0.63968
56.57,0.63969
56.58,0.63969
56.59,0.63969
56.6,0.63969
56.61,0.63969
56.62,0.63969
56.63,0.63969
56.64,0.63969
56.65,0.63969
56.66,0.63969
56.67,0.63969
56.68,0.63969
56.69,0.63969
56.7,0.63969
56.71,0.63969
56.72,0.63969
56.73,0.63969
56.74,0.63969
56.75,0.63968
56.76,0.63967
56.77,0.63966
56.78,0.6396
56.79,0.63917
56.8,0.68248
56.81,0.75769
56.82,0.81668
56.83,0.85238
56.84,0.86922
56.85,0.8617
56.86,0.82581
56.87,0.76473
56.88,0.68262
56.89,0.63918
56.9,0.63958
56.91,0.6396
56.92,0.63955
56.93,0.63937
56.94,0.63793
56.95,0.78337
56.96,1.0757
56.97,1.3667
56.98,1.6574
56.99,1.9475
57,2.2101
57.01,1.9475
57.02,1.6574
57.03,1.3666
57.04,1.0755
57.05,0.78289
57.06,0.61668
57.07,0.54153
57.08,0.46602
57.09,0.39765
57.1,0.4661
57.11,0.54181
57.12,0.61838
57.13,0.63914
57.14,0.63939
57.15,0.63943
57.16,0.63933
57.17,0.63858
57.18,0.68621
57.19,0.76119
57.2,0.83024
57.21,0.89003
57.22,0.93763
57.23,0.97071
57.24,0.98767
57.25,0.98767
57.26,0.97072
57.27,0.93764
57.28,0.89005
57.29,0.83028
57.3,0.76124
57.31,0.68627
57.32,0.63866
57.33,0.63944
57.34,0.63958
57.35,0.63964
57.36,0.63968
57.37,0.6397
57.38,0.63973
57.39,0.63976
57.4,0.63985
57.41,0.64196
57.42,0.66258
57.43,0.67404
57.44,0.67109
57.45,0.65503
57.46,0.63927
57.47,0.63955
57.48,0.63961
57.49,0.63964
57.5,0.63965
57.51,0.63966
57.52,0.63967
57.53,0.63967
57.54,0.63968
57.55,0.63968
57.56,0.63968
57.57,0.63969
57.58,0.63969
57.59,0.63969
57.6,0.63969
57.61,0.63969
57.62,0.63969
57.63,0.63969
57.64,0.63969
57.65,0.63969
57.66,0.63969
57.67,0.63969
57.68,0.63969
57.69,0.63969
57.7,0.63969
57.71,0.63969
57.72,0.63969
57.73,0.63969
57.74,0.63969
57.75,0.63968
57.76,0.63967
57.77,0.63966
57.78,0.6396
57.79,0.63917
57.8,0.68248
57.81,0.75769
57.82,0.81668
57.83,0.85238
57.84,0.86922
57.85,0.8617
57.86,0.82581
57.87,0.76473
57.88,0.68262
57.89,0.63918
57.9,0.63958
57.91,0.6396
57.92,0.63955
57.93,0.63937
57.94,0.63793
57.95,0.78337
57.96,1.0757
57.97,1.3667
57.98,1.6574
57.99,1.9475
58,2.2101
58.01,1.9475
58.02,1.6574
58.03,1.3666
58.04,1.0755
58.05,0.78289
58.06,0.61668
58.07,0.54153
58.08,0.46602
58.09,0.39765
58.1,0.4661
58.11,0.54181
58.12,0.61838
58.13,0.63914
58.14,0.63939
58.15,0.63943
58.16,0.63933
58.17,0.63858
58.18,0.68621
58.19,0.76119
58.2,0.83024
58.21,0.89003
58.22,0.93763
58.23,0.97071
58.24,0.98767
58.25,0.98767
58.26,0.97072
58.27,0.93764
58.28,0.89005
58.29,0.83028
58.3,0.76124
58.31,0.68627
58.32,0.63866
58.33,0.63944
58.34,0.63958
58.35,0.63964
58.36,0.63968
58.37,0.6397
58.38,0.63973
58.39,0.63976
58.4,0.63985
58.41,0.64196
58.42,0.66258
58.43,0.67404
58.44,0.67109
58.45,0.65503
58.46,0.63927
58.47,0.63955
58.48,0.63961
58.49,0.63964
58.5,0.63965
58.51,0.63966
58.52,0.63967
58.53,0.63967
58.54,0.63968
58.55,0.63968
58.56,0.63968
58.57,0.63969
58.58,0.63969
58.59,0.63969
58.6,0.63969
58.61,0.63969
58.62,0.63969
58.63,0.63969
58.64,0.63969
58.65,0.63969
58.66,0.63969
58.67,0.63969
58.68,0.63969
58.69,0.63969
58.7,0.63969
58.71,0.63969
58.72,0.63969
58.73,0.63969
58.74,0.63969
58.75,0.63968
58.76,0.63967
58.77,0.63966
58.78,0.6396
58.79,0.63917
58.8,0.68248
58.81,0.75769
58.82,0.81668
58.83,0.85238
58.84,0.86922
58.85,0.8617
58.86,0.82581
58.87,0.76473
58.88,0.68262
58.89,0.63918
58.9,0.63958
58.91,0.6396
58.92,0.63955
58.93,0.63937
58.94,0.63793
58.95,0.78337
58.96,1.0757
58.97,1.3667
58.98,1.6574
58.99,1.9475
59,2.2101
59.01,1.9475
59.02,1.6574
59.03,1.3666
59.04,1.0755
59.05,0.78289
59.06,0.61668
59.07,0.54153
59.08,0.46602
59.09,0.39765
59.1,0.4661
59.11,0.54181
59.12,0.61838
59.13,0.63914
59.14,0.63939
59.15,0.63943
59.16,0.63933
59.17,0.63858
59.18,0.68621
59.19,0.76119
59.2,0.83024
59.21,0.89003
59.22,0.93763
59.23,0.97071
59.24,0.98767
59.25,0.98767
59.26,0.97072
59.27,0.93764
59.28,0.89005
59.29,0.83028
59.3,0.76124
59.31,0.68627
59.32,0.63866
59.33,0.63944
59.34,0.63958
59.35,0.63964
59.36,0.63968
59.37,0.6397
59.38,0.63973
59.39,0.63976
59.4,0.63985
59.41,0.64196
59.42,0.66258
59.43,0.67404
59.44,0.67109
59.45,0.65503
59.46,0.63927
59.47,0.63955
59.48,0.63961
59.49,0.63964
59.5,0.63965
59.51,0.63966
59.52,0.63967
59.53,0.63967
59.54,0.63968
59.55,0.63968
59.56,0.63968
59.57,0.63969
59.58,0.63969
59.59,0.63969
59.6,0.63969
59.61,0.63969
59.62,0.63969
59.63,0.63969
59.64,0.63969
59.65,0.63969
59.66,0.63969
59.67,0.63969
59.68,0.63969
59.69,0.63969
59.7,0.63969
59.71,0.63969
59.72,0.63969
59.73,0.63969
59.74,0.63969
59.75,0.63968
59.76,0.63967
59.77,0.63966
59.78,0.6396
59.79,0.63917
59.8,0.68248
59.81,0.75769
59.82,0.81668
59.83,0.85238
59.84,0.86922
59.85,0.8617
59.86,0.82581
59.87,0.76473
59.88,0.68262
59.89,0.63918
59.9,0.63958
59.91,0.6396
59.92,0.63955
59.93,0.63937
59.94,0.63793
59.95,0.78337
59.96,1.0757
59.97,1.3667
59.98,1.6574
59.99,1.9475
60,2.2101
